# Acquired on 08/01/2024 16:14:37 
# SPIDER: Creep_-4mm_0771453C
# CREEP MEASUREMENT

# time [ms]		force [N]		stiffness [N/mm]
0.000			10.199			-2.550
100.000			11.305			-2.826
200.000			11.823			-2.956
302.000			11.861			-2.965
401.000			11.824			-2.956
500.000			11.795			-2.949
601.000			11.771			-2.943
700.000			11.751			-2.938
800.000			11.733			-2.933
901.000			11.717			-2.929
1001.000			11.702			-2.925
1102.000			11.678			-2.919
1201.000			11.665			-2.916
1300.000			11.654			-2.914
1401.000			11.644			-2.911
1500.000			11.635			-2.909
1600.000			11.628			-2.907
1701.000			11.619			-2.905
1801.000			11.603			-2.901
1901.000			11.596			-2.899
2001.000			11.590			-2.897
2100.000			11.583			-2.896
2200.000			11.576			-2.894
2301.000			11.572			-2.893
2400.000			11.565			-2.891
2500.000			11.554			-2.889
2602.000			11.550			-2.887
2701.000			11.544			-2.886
2800.000			11.539			-2.885
2901.000			11.534			-2.883
3000.000			11.529			-2.882
3100.000			11.525			-2.881
3201.000			11.517			-2.879
3301.000			11.512			-2.878
3401.000			11.508			-2.877
3501.000			11.503			-2.876
3600.000			11.500			-2.875
3700.000			11.497			-2.874
3801.000			11.493			-2.873
3900.000			11.490			-2.873
4000.000			11.483			-2.871
4102.000			11.479			-2.870
4201.000			11.476			-2.869
4300.000			11.473			-2.868
4400.000			11.470			-2.868
4500.000			11.468			-2.867
4601.000			11.466			-2.866
4700.000			11.458			-2.865
4801.000			11.456			-2.864
4902.000			11.454			-2.863
5000.000			11.450			-2.863
5100.000			11.447			-2.862
5201.000			11.444			-2.861
5300.000			11.441			-2.860
5400.000			11.437			-2.859
5501.000			11.436			-2.859
5601.000			11.433			-2.858
5701.000			11.430			-2.858
5801.000			11.427			-2.857
5900.000			11.425			-2.856
6000.000			11.423			-2.856
6101.000			11.418			-2.855
6200.000			11.416			-2.854
6301.000			11.414			-2.854
6402.000			11.413			-2.853
6500.000			11.409			-2.852
6600.000			11.406			-2.852
6701.000			11.405			-2.851
6800.000			11.403			-2.851
6900.000			11.399			-2.850
7001.000			11.398			-2.849
7101.000			11.395			-2.849
7201.000			11.393			-2.848
7301.000			11.392			-2.848
7400.000			11.390			-2.848
7500.000			11.388			-2.847
7600.000			11.384			-2.846
7700.000			11.381			-2.845
7802.000			11.380			-2.845
7901.000			11.379			-2.845
8000.000			11.378			-2.844
8101.000			11.377			-2.844
8200.000			11.374			-2.844
8300.000			11.372			-2.843
8401.000			11.370			-2.842
8500.000			11.368			-2.842
8601.000			11.366			-2.841
8702.000			11.364			-2.841
8800.000			11.363			-2.841
8900.000			11.360			-2.840
9001.000			11.358			-2.839
9100.000			11.356			-2.839
9200.000			11.355			-2.839
9301.000			11.355			-2.839
9401.000			11.352			-2.838
9501.000			11.350			-2.837
9601.000			11.349			-2.837
9700.000			11.348			-2.837
9800.000			11.345			-2.836
9901.000			11.343			-2.836
10000.000			11.341			-2.835
10101.000			11.340			-2.835
10202.000			11.339			-2.835
10300.000			11.337			-2.834
10400.000			11.337			-2.834
10501.000			11.334			-2.834
10600.000			11.333			-2.833
10700.000			11.332			-2.833
10800.000			11.331			-2.833
10901.000			11.330			-2.832
11002.000			11.328			-2.832
11100.000			11.327			-2.832
11200.000			11.326			-2.831
11301.000			11.324			-2.831
11400.000			11.322			-2.831
11500.000			11.320			-2.830
11601.000			11.318			-2.830
11701.000			11.317			-2.829
11801.000			11.316			-2.829
11901.000			11.315			-2.829
12000.000			11.313			-2.828
12100.000			11.312			-2.828
12201.000			11.311			-2.828
12300.000			11.311			-2.828
12401.000			11.310			-2.828
12502.000			11.309			-2.827
12600.000			11.307			-2.827
12700.000			11.306			-2.826
12801.000			11.305			-2.826
12900.000			11.304			-2.826
13000.000			11.303			-2.826
13101.000			11.301			-2.825
13201.000			11.299			-2.825
13301.000			11.299			-2.825
13401.000			11.296			-2.824
13500.000			11.296			-2.824
13600.000			11.295			-2.824
13701.000			11.293			-2.823
13800.000			11.293			-2.823
13900.000			11.291			-2.823
14002.000			11.291			-2.823
14101.000			11.289			-2.822
14201.000			11.288			-2.822
14300.000			11.287			-2.822
14400.000			11.286			-2.821
14501.000			11.285			-2.821
14600.000			11.284			-2.821
14700.000			11.283			-2.821
14802.000			11.282			-2.821
14901.000			11.280			-2.820
15000.000			11.278			-2.820
15101.000			11.278			-2.820
15200.000			11.277			-2.819
15300.000			11.276			-2.819
15401.000			11.275			-2.819
15501.000			11.274			-2.819
15601.000			11.273			-2.818
15701.000			11.272			-2.818
15800.000			11.271			-2.818
15900.000			11.271			-2.818
16001.000			11.269			-2.817
16100.000			11.268			-2.817
16200.000			11.268			-2.817
16302.000			11.266			-2.817
16401.000			11.266			-2.816
16500.000			11.265			-2.816
16601.000			11.264			-2.816
16700.000			11.263			-2.816
16800.000			11.262			-2.816
16901.000			11.260			-2.815
17000.000			11.260			-2.815
17102.000			11.260			-2.815
17201.000			11.260			-2.815
17300.000			11.258			-2.815
17401.000			11.256			-2.814
17500.000			11.257			-2.814
17600.000			11.255			-2.814
17701.000			11.254			-2.813
17800.000			11.253			-2.813
17901.000			11.252			-2.813
18002.000			11.251			-2.813
18100.000			11.250			-2.812
18200.000			11.250			-2.813
18301.000			11.249			-2.812
18400.000			11.249			-2.812
18500.000			11.247			-2.812
18601.000			11.246			-2.812
18701.000			11.246			-2.811
18801.000			11.245			-2.811
18901.000			11.243			-2.811
19000.000			11.242			-2.810
19100.000			11.242			-2.811
19201.000			11.241			-2.810
19300.000			11.241			-2.810
19400.000			11.240			-2.810
19502.000			11.239			-2.810
19601.000			11.238			-2.809
19700.000			11.237			-2.809
19801.000			11.237			-2.809
19900.000			11.236			-2.809
20000.000			11.235			-2.809
20101.000			11.234			-2.809
20201.000			11.234			-2.808
20302.000			11.234			-2.808
20401.000			11.233			-2.808
20500.000			11.232			-2.808
20601.000			11.231			-2.808
20700.000			11.230			-2.808
20800.000			11.229			-2.807
20901.000			11.228			-2.807
21001.000			11.228			-2.807
21101.000			11.228			-2.807
21201.000			11.227			-2.807
21300.000			11.225			-2.806
21400.000			11.224			-2.806
21501.000			11.223			-2.806
21600.000			11.222			-2.806
21700.000			11.222			-2.806
21802.000			11.221			-2.805
21901.000			11.220			-2.805
22000.000			11.220			-2.805
22101.000			11.220			-2.805
22200.000			11.219			-2.805
22300.000			11.218			-2.804
22401.000			11.217			-2.804
22501.000			11.217			-2.804
22601.000			11.215			-2.804
22701.000			11.214			-2.803
22800.000			11.214			-2.804
22900.000			11.215			-2.804
23001.000			11.214			-2.803
23100.000			11.213			-2.803
23200.000			11.212			-2.803
23302.000			11.211			-2.803
23401.000			11.211			-2.803
23500.000			11.211			-2.803
23600.000			11.209			-2.802
23700.000			11.210			-2.802
23801.000			11.209			-2.802
23900.000			11.208			-2.802
24000.000			11.207			-2.802
24102.000			11.206			-2.802
24201.000			11.205			-2.801
24300.000			11.204			-2.801
24401.000			11.203			-2.801
24500.000			11.203			-2.801
24600.000			11.203			-2.801
24701.000			11.203			-2.801
24801.000			11.202			-2.800
24901.000			11.201			-2.800
25001.000			11.200			-2.800
25100.000			11.199			-2.800
25200.000			11.198			-2.800
25301.000			11.198			-2.800
25400.000			11.198			-2.800
25500.000			11.197			-2.799
25602.000			11.197			-2.799
25701.000			11.195			-2.799
25800.000			11.194			-2.799
25901.000			11.193			-2.798
26000.000			11.193			-2.798
26100.000			11.193			-2.798
26201.000			11.193			-2.798
26300.000			11.192			-2.798
26401.000			11.191			-2.798
26502.000			11.190			-2.798
26600.000			11.190			-2.797
26700.000			11.190			-2.797
26800.000			11.190			-2.797
26900.000			11.188			-2.797
27001.000			11.188			-2.797
27100.000			11.188			-2.797
27201.000			11.187			-2.797
27302.000			11.187			-2.797
27400.000			11.187			-2.797
27500.000			11.187			-2.797
27601.000			11.185			-2.796
27700.000			11.185			-2.796
27800.000			11.184			-2.796
27901.000			11.183			-2.796
28001.000			11.184			-2.796
28101.000			11.182			-2.796
28201.000			11.181			-2.795
28300.000			11.180			-2.795
28400.000			11.180			-2.795
28501.000			11.179			-2.795
28600.000			11.179			-2.795
28700.000			11.179			-2.795
28802.000			11.179			-2.795
28901.000			11.179			-2.795
29000.000			11.177			-2.794
29101.000			11.176			-2.794
29200.000			11.176			-2.794
29300.000			11.176			-2.794
29401.000			11.175			-2.794
29500.000			11.175			-2.794
29601.000			11.175			-2.794
29702.000			11.174			-2.794
29800.000			11.173			-2.793
29900.000			11.172			-2.793
30000.000			11.172			-2.793
30100.000			11.173			-2.793
30201.000			11.171			-2.793
30300.000			11.170			-2.793
30401.000			11.169			-2.792
30502.000			11.169			-2.792
30600.000			11.168			-2.792
30700.000			11.169			-2.792
30801.000			11.169			-2.792
30900.000			11.168			-2.792
31000.000			11.167			-2.792
31101.000			11.166			-2.791
31201.000			11.165			-2.791
31301.000			11.166			-2.792
31401.000			11.167			-2.792
31500.000			11.165			-2.791
31600.000			11.165			-2.791
31701.000			11.164			-2.791
31800.000			11.163			-2.791
31901.000			11.163			-2.791
32002.000			11.162			-2.791
32100.000			11.161			-2.790
32200.000			11.161			-2.790
32301.000			11.161			-2.790
32400.000			11.160			-2.790
32500.000			11.160			-2.790
32601.000			11.160			-2.790
32701.000			11.160			-2.790
32801.000			11.158			-2.790
32901.000			11.158			-2.790
33000.000			11.158			-2.789
33100.000			11.157			-2.789
33200.000			11.156			-2.789
33300.000			11.155			-2.789
33401.000			11.154			-2.789
33501.000			11.155			-2.789
33601.000			11.155			-2.789
33701.000			11.155			-2.789
33800.000			11.155			-2.789
33900.000			11.154			-2.788
34001.000			11.154			-2.788
34100.000			11.153			-2.788
34201.000			11.152			-2.788
34302.000			11.152			-2.788
34400.000			11.151			-2.788
34500.000			11.150			-2.788
34601.000			11.150			-2.787
34700.000			11.150			-2.787
34800.000			11.150			-2.788
34901.000			11.150			-2.787
35001.000			11.147			-2.787
35101.000			11.148			-2.787
35201.000			11.146			-2.787
35300.000			11.146			-2.787
35400.000			11.146			-2.786
35501.000			11.146			-2.786
35600.000			11.146			-2.786
35700.000			11.145			-2.786
35802.000			11.145			-2.786
35901.000			11.144			-2.786
36000.000			11.144			-2.786
36101.000			11.144			-2.786
36200.000			11.144			-2.786
36300.000			11.143			-2.786
36400.000			11.142			-2.785
36500.000			11.142			-2.785
36602.000			11.141			-2.785
36701.000			11.140			-2.785
36800.000			11.140			-2.785
36901.000			11.139			-2.785
37000.000			11.139			-2.785
37100.000			11.139			-2.785
37201.000			11.139			-2.785
37301.000			11.138			-2.784
37401.000			11.138			-2.784
37501.000			11.138			-2.784
37600.000			11.137			-2.784
37700.000			11.136			-2.784
37801.000			11.136			-2.784
37900.000			11.136			-2.784
38000.000			11.135			-2.784
38102.000			11.135			-2.784
38201.000			11.135			-2.784
38300.000			11.134			-2.784
38401.000			11.133			-2.783
38500.000			11.133			-2.783
38600.000			11.133			-2.783
38701.000			11.133			-2.783
38800.000			11.132			-2.783
38901.000			11.131			-2.783
39002.000			11.131			-2.783
39100.000			11.131			-2.783
39200.000			11.130			-2.783
39301.000			11.130			-2.783
39400.000			11.130			-2.783
39500.000			11.131			-2.783
39600.000			11.129			-2.782
39701.000			11.128			-2.782
39802.000			11.128			-2.782
39900.000			11.127			-2.782
40000.000			11.127			-2.782
40101.000			11.126			-2.781
40200.000			11.127			-2.782
40300.000			11.126			-2.781
40402.000			11.125			-2.781
40501.000			11.125			-2.781
40600.000			11.125			-2.781
40701.000			11.124			-2.781
40800.000			11.124			-2.781
40900.000			11.125			-2.781
41001.000			11.124			-2.781
41100.000			11.124			-2.781
41201.000			11.123			-2.781
41302.000			11.122			-2.780
41400.000			11.122			-2.780
41500.000			11.122			-2.780
41601.000			11.122			-2.780
41700.000			11.121			-2.780
41800.000			11.120			-2.780
41901.000			11.120			-2.780
42001.000			11.121			-2.780
42101.000			11.120			-2.780
42201.000			11.120			-2.780
42300.000			11.119			-2.780
42400.000			11.118			-2.780
42501.000			11.117			-2.779
42600.000			11.117			-2.779
42702.000			11.118			-2.779
42801.000			11.117			-2.779
42900.000			11.117			-2.779
43001.000			11.117			-2.779
43100.000			11.115			-2.779
43200.000			11.115			-2.779
43301.000			11.115			-2.779
43400.000			11.115			-2.779
43501.000			11.115			-2.779
43602.000			11.114			-2.779
43700.000			11.114			-2.779
43800.000			11.113			-2.778
43901.000			11.112			-2.778
44000.000			11.111			-2.778
44100.000			11.112			-2.778
44202.000			11.112			-2.778
44301.000			11.112			-2.778
44400.000			11.111			-2.778
44501.000			11.110			-2.778
44600.000			11.110			-2.778
44700.000			11.111			-2.778
44801.000			11.110			-2.777
44900.000			11.111			-2.778
45001.000			11.110			-2.777
45102.000			11.110			-2.777
45200.000			11.110			-2.777
45300.000			11.107			-2.777
45401.000			11.107			-2.777
45500.000			11.107			-2.777
45600.000			11.107			-2.777
45702.000			11.107			-2.777
45801.000			11.107			-2.777
45902.000			11.106			-2.776
46000.000			11.106			-2.776
46100.000			11.105			-2.776
46201.000			11.105			-2.776
46300.000			11.105			-2.776
46400.000			11.104			-2.776
46502.000			11.104			-2.776
46601.000			11.103			-2.776
46700.000			11.102			-2.776
46801.000			11.102			-2.775
46900.000			11.102			-2.775
47000.000			11.101			-2.775
47101.000			11.101			-2.775
47200.000			11.101			-2.775
47301.000			11.101			-2.775
47402.000			11.101			-2.775
47500.000			11.100			-2.775
47600.000			11.100			-2.775
47701.000			11.100			-2.775
47800.000			11.100			-2.775
47900.000			11.100			-2.775
48001.000			11.100			-2.775
48101.000			11.099			-2.775
48201.000			11.099			-2.775
48301.000			11.098			-2.774
48400.000			11.098			-2.774
48500.000			11.098			-2.775
48601.000			11.099			-2.775
48700.000			11.098			-2.775
48800.000			11.097			-2.774
48902.000			11.096			-2.774
49001.000			11.096			-2.774
49100.000			11.097			-2.774
49200.000			11.096			-2.774
49300.000			11.094			-2.774
49401.000			11.094			-2.774
49500.000			11.095			-2.774
49600.000			11.094			-2.774
49702.000			11.094			-2.773
49801.000			11.093			-2.773
49900.000			11.092			-2.773
50001.000			11.092			-2.773
50100.000			11.092			-2.773
50200.000			11.092			-2.773
50301.000			11.092			-2.773
50400.000			11.091			-2.773
50501.000			11.091			-2.773
50602.000			11.091			-2.773
50700.000			11.091			-2.773
50800.000			11.091			-2.773
50901.000			11.090			-2.773
51000.000			11.089			-2.772
51100.000			11.088			-2.772
51201.000			11.089			-2.772
51301.000			11.089			-2.772
51401.000			11.090			-2.772
51501.000			11.088			-2.772
51600.000			11.088			-2.772
51700.000			11.088			-2.772
51801.000			11.086			-2.772
51900.000			11.087			-2.772
52000.000			11.086			-2.772
52102.000			11.087			-2.772
52201.000			11.087			-2.772
52300.000			11.086			-2.771
52400.000			11.086			-2.772
52500.000			11.084			-2.771
52601.000			11.085			-2.771
52700.000			11.085			-2.771
52800.000			11.084			-2.771
52902.000			11.084			-2.771
53001.000			11.085			-2.771
53100.000			11.085			-2.771
53201.000			11.083			-2.771
53300.000			11.082			-2.771
53400.000			11.083			-2.771
53501.000			11.083			-2.771
53601.000			11.083			-2.771
53701.000			11.083			-2.771
53801.000			11.082			-2.770
53900.000			11.081			-2.770
54000.000			11.082			-2.770
54101.000			11.082			-2.770
54200.000			11.081			-2.770
54300.000			11.080			-2.770
54402.000			11.080			-2.770
54501.000			11.080			-2.770
54600.000			11.079			-2.770
54701.000			11.079			-2.770
54800.000			11.078			-2.770
54900.000			11.079			-2.770
55001.000			11.079			-2.770
55100.000			11.078			-2.770
55201.000			11.077			-2.769
55302.000			11.078			-2.769
55400.000			11.076			-2.769
55500.000			11.077			-2.769
55600.000			11.076			-2.769
55700.000			11.076			-2.769
55801.000			11.077			-2.769
55900.000			11.076			-2.769
56001.000			11.076			-2.769
56102.000			11.076			-2.769
56200.000			11.075			-2.769
56300.000			11.074			-2.769
56401.000			11.074			-2.769
56500.000			11.074			-2.769
56600.000			11.074			-2.768
56701.000			11.072			-2.768
56801.000			11.072			-2.768
56901.000			11.073			-2.768
57001.000			11.071			-2.768
57100.000			11.072			-2.768
57200.000			11.071			-2.768
57301.000			11.071			-2.768
57400.000			11.071			-2.768
57500.000			11.071			-2.768
57602.000			11.071			-2.768
57701.000			11.072			-2.768
57800.000			11.071			-2.768
57901.000			11.070			-2.768
58000.000			11.070			-2.767
58100.000			11.069			-2.767
58201.000			11.069			-2.767
58300.000			11.070			-2.767
58401.000			11.069			-2.767
58502.000			11.067			-2.767
58600.000			11.067			-2.767
58700.000			11.068			-2.767
58800.000			11.067			-2.767
58900.000			11.067			-2.767
59001.000			11.067			-2.767
59100.000			11.065			-2.766
59201.000			11.065			-2.766
59302.000			11.066			-2.766
59400.000			11.066			-2.767
59500.000			11.065			-2.766
59601.000			11.064			-2.766
59700.000			11.065			-2.766
59800.000			11.066			-2.766
59901.000			11.065			-2.766
60001.000			11.064			-2.766
60101.000			11.063			-2.766
60201.000			11.063			-2.766
60300.000			11.062			-2.766
60400.000			11.063			-2.766
60501.000			11.064			-2.766
60600.000			11.063			-2.766
60700.000			11.062			-2.765
60802.000			11.062			-2.765
60901.000			11.062			-2.765
61000.000			11.063			-2.766
61101.000			11.062			-2.766
61200.000			11.062			-2.765
61300.000			11.060			-2.765
61401.000			11.060			-2.765
61500.000			11.061			-2.765
61601.000			11.060			-2.765
61702.000			11.060			-2.765
61800.000			11.061			-2.765
61900.000			11.061			-2.765
62000.000			11.060			-2.765
62100.000			11.059			-2.765
62201.000			11.058			-2.765
62301.000			11.059			-2.765
62401.000			11.059			-2.765
62501.000			11.058			-2.764
62600.000			11.058			-2.765
62700.000			11.057			-2.764
62801.000			11.058			-2.764
62900.000			11.057			-2.764
63000.000			11.057			-2.764
63102.000			11.057			-2.764
63201.000			11.057			-2.764
63300.000			11.056			-2.764
63401.000			11.056			-2.764
63500.000			11.056			-2.764
63600.000			11.056			-2.764
63701.000			11.055			-2.764
63800.000			11.054			-2.764
63901.000			11.054			-2.764
64002.000			11.055			-2.764
64100.000			11.054			-2.764
64200.000			11.054			-2.763
64301.000			11.053			-2.763
64400.000			11.052			-2.763
64500.000			11.053			-2.763
64601.000			11.053			-2.763
64701.000			11.053			-2.763
64801.000			11.053			-2.763
64901.000			11.052			-2.763
65000.000			11.052			-2.763
65100.000			11.052			-2.763
65200.000			11.051			-2.763
65300.000			11.052			-2.763
65401.000			11.051			-2.763
65501.000			11.051			-2.763
65601.000			11.051			-2.763
65701.000			11.050			-2.763
65800.000			11.050			-2.762
65900.000			11.050			-2.762
66001.000			11.049			-2.762
66100.000			11.049			-2.762
66200.000			11.049			-2.762
66302.000			11.049			-2.762
66401.000			11.047			-2.762
66500.000			11.047			-2.762
66601.000			11.049			-2.762
66700.000			11.049			-2.762
66800.000			11.049			-2.762
66901.000			11.049			-2.762
67000.000			11.048			-2.762
67101.000			11.047			-2.762
67202.000			11.046			-2.761
67300.000			11.045			-2.761
67400.000			11.046			-2.761
67501.000			11.046			-2.761
67600.000			11.046			-2.761
67700.000			11.046			-2.761
67801.000			11.046			-2.761
67901.000			11.046			-2.762
68001.000			11.046			-2.761
68101.000			11.045			-2.761
68200.000			11.045			-2.761
68300.000			11.044			-2.761
68400.000			11.044			-2.761
68500.000			11.044			-2.761
68601.000			11.044			-2.761
68701.000			11.044			-2.761
68801.000			11.044			-2.761
68901.000			11.044			-2.761
69000.000			11.043			-2.761
69100.000			11.042			-2.761
69201.000			11.043			-2.761
69300.000			11.042			-2.761
69400.000			11.042			-2.761
69502.000			11.041			-2.760
69601.000			11.042			-2.760
69700.000			11.042			-2.760
69801.000			11.041			-2.760
69900.000			11.041			-2.760
70000.000			11.041			-2.760
70101.000			11.040			-2.760
70201.000			11.040			-2.760
70301.000			11.040			-2.760
70402.000			11.040			-2.760
70500.000			11.039			-2.760
70600.000			11.040			-2.760
70701.000			11.039			-2.760
70800.000			11.038			-2.760
70900.000			11.038			-2.759
71001.000			11.039			-2.760
71101.000			11.039			-2.760
71201.000			11.038			-2.759
71301.000			11.037			-2.759
71400.000			11.037			-2.759
71500.000			11.037			-2.759
71600.000			11.037			-2.759
71700.000			11.037			-2.759
71801.000			11.037			-2.759
71901.000			11.036			-2.759
72001.000			11.036			-2.759
72101.000			11.035			-2.759
72200.000			11.035			-2.759
72300.000			11.036			-2.759
72401.000			11.036			-2.759
72500.000			11.035			-2.759
72601.000			11.035			-2.759
72702.000			11.035			-2.759
72801.000			11.034			-2.759
72900.000			11.034			-2.758
73001.000			11.033			-2.758
73100.000			11.033			-2.758
73200.000			11.033			-2.758
73301.000			11.033			-2.758
73401.000			11.033			-2.758
73501.000			11.033			-2.758
73601.000			11.033			-2.758
73700.000			11.033			-2.758
73800.000			11.033			-2.758
73901.000			11.032			-2.758
74000.000			11.031			-2.758
74100.000			11.030			-2.757
74202.000			11.030			-2.758
74301.000			11.030			-2.757
74400.000			11.030			-2.758
74501.000			11.030			-2.757
74600.000			11.030			-2.757
74700.000			11.030			-2.757
74800.000			11.029			-2.757
74900.000			11.029			-2.757
75002.000			11.029			-2.757
75101.000			11.029			-2.757
75200.000			11.029			-2.757
75301.000			11.028			-2.757
75400.000			11.028			-2.757
75500.000			11.028			-2.757
75601.000			11.028			-2.757
75700.000			11.027			-2.757
75801.000			11.028			-2.757
75902.000			11.028			-2.757
76000.000			11.027			-2.757
76100.000			11.027			-2.757
76201.000			11.026			-2.757
76300.000			11.026			-2.757
76400.000			11.026			-2.757
76501.000			11.025			-2.756
76601.000			11.025			-2.756
76701.000			11.025			-2.756
76801.000			11.026			-2.756
76900.000			11.026			-2.756
77000.000			11.025			-2.756
77101.000			11.024			-2.756
77200.000			11.024			-2.756
77300.000			11.024			-2.756
77402.000			11.024			-2.756
77501.000			11.023			-2.756
77600.000			11.024			-2.756
77701.000			11.024			-2.756
77800.000			11.024			-2.756
77900.000			11.024			-2.756
78000.000			11.023			-2.756
78100.000			11.024			-2.756
78202.000			11.023			-2.756
78301.000			11.022			-2.755
78400.000			11.022			-2.755
78501.000			11.023			-2.756
78600.000			11.022			-2.756
78700.000			11.023			-2.756
78801.000			11.022			-2.755
78900.000			11.021			-2.755
79001.000			11.020			-2.755
79102.000			11.021			-2.755
79200.000			11.022			-2.755
79300.000			11.022			-2.755
79401.000			11.022			-2.755
79500.000			11.020			-2.755
79600.000			11.019			-2.755
79701.000			11.020			-2.755
79801.000			11.021			-2.755
79901.000			11.019			-2.755
80001.000			11.019			-2.755
80100.000			11.019			-2.755
80200.000			11.019			-2.755
80301.000			11.018			-2.754
80400.000			11.017			-2.754
80500.000			11.019			-2.755
80602.000			11.018			-2.755
80701.000			11.018			-2.755
80800.000			11.017			-2.754
80901.000			11.017			-2.754
81000.000			11.016			-2.754
81100.000			11.016			-2.754
81200.000			11.016			-2.754
81301.000			11.017			-2.754
81402.000			11.016			-2.754
81501.000			11.015			-2.754
81600.000			11.015			-2.754
81701.000			11.015			-2.754
81800.000			11.015			-2.754
81900.000			11.014			-2.754
82001.000			11.015			-2.754
82101.000			11.015			-2.754
82201.000			11.014			-2.754
82301.000			11.015			-2.754
82400.000			11.015			-2.754
82500.000			11.014			-2.754
82601.000			11.014			-2.753
82700.000			11.014			-2.754
82800.000			11.014			-2.754
82902.000			11.013			-2.753
83001.000			11.014			-2.754
83100.000			11.013			-2.753
83201.000			11.013			-2.753
83300.000			11.013			-2.753
83400.000			11.014			-2.753
83501.000			11.014			-2.753
83600.000			11.012			-2.753
83701.000			11.012			-2.753
83802.000			11.012			-2.753
83900.000			11.012			-2.753
84000.000			11.012			-2.753
84101.000			11.010			-2.752
84200.000			11.010			-2.753
84300.000			11.011			-2.753
84402.000			11.009			-2.752
84501.000			11.010			-2.752
84601.000			11.009			-2.752
84700.000			11.009			-2.752
84800.000			11.010			-2.752
84901.000			11.009			-2.752
85000.000			11.009			-2.752
85100.000			11.009			-2.752
85202.000			11.009			-2.752
85301.000			11.008			-2.752
85400.000			11.007			-2.752
85501.000			11.008			-2.752
85600.000			11.008			-2.752
85700.000			11.008			-2.752
85801.000			11.008			-2.752
85900.000			11.007			-2.752
86001.000			11.008			-2.752
86102.000			11.008			-2.752
86200.000			11.008			-2.752
86300.000			11.007			-2.752
86401.000			11.006			-2.752
86500.000			11.006			-2.751
86600.000			11.007			-2.752
86701.000			11.007			-2.752
86801.000			11.007			-2.752
86901.000			11.007			-2.752
87001.000			11.006			-2.752
87100.000			11.006			-2.751
87200.000			11.006			-2.751
87301.000			11.005			-2.751
87400.000			11.005			-2.751
87500.000			11.004			-2.751
87602.000			11.005			-2.751
87701.000			11.005			-2.751
87801.000			11.004			-2.751
87900.000			11.003			-2.751
88000.000			11.004			-2.751
88101.000			11.004			-2.751
88200.000			11.004			-2.751
88300.000			11.003			-2.751
88402.000			11.002			-2.750
88501.000			11.002			-2.751
88600.000			11.003			-2.751
88701.000			11.002			-2.751
88800.000			11.003			-2.751
88900.000			11.003			-2.751
89001.000			11.003			-2.751
89100.000			11.002			-2.750
89201.000			11.002			-2.750
89302.000			11.002			-2.750
89400.000			11.002			-2.751
89500.000			11.001			-2.750
89601.000			11.001			-2.750
89700.000			11.001			-2.750
89800.000			11.002			-2.750
89901.000			11.000			-2.750
90001.000			11.000			-2.750
90101.000			11.000			-2.750
90201.000			11.000			-2.750
90300.000			10.999			-2.750
90400.000			10.999			-2.750
90501.000			10.999			-2.750
90600.000			10.999			-2.750
90700.000			10.999			-2.750
90802.000			10.999			-2.750
90901.000			10.999			-2.750
91002.000			10.998			-2.749
91100.000			10.998			-2.749
91200.000			10.999			-2.750
91301.000			10.999			-2.750
91400.000			10.999			-2.750
91500.000			10.998			-2.750
91601.000			10.997			-2.749
91701.000			10.998			-2.749
91801.000			10.997			-2.749
91901.000			10.997			-2.749
92000.000			10.997			-2.749
92100.000			10.998			-2.750
92201.000			10.997			-2.749
92300.000			10.995			-2.749
92400.000			10.996			-2.749
92502.000			10.996			-2.749
92601.000			10.997			-2.749
92700.000			10.996			-2.749
92801.000			10.996			-2.749
92900.000			10.996			-2.749
93000.000			10.996			-2.749
93101.000			10.995			-2.749
93200.000			10.995			-2.749
93300.000			10.994			-2.749
93402.000			10.995			-2.749
93501.000			10.994			-2.749
93600.000			10.993			-2.748
93701.000			10.993			-2.748
93800.000			10.993			-2.748
93900.000			10.994			-2.748
94000.000			10.993			-2.748
94100.000			10.993			-2.748
94202.000			10.992			-2.748
94301.000			10.993			-2.748
94400.000			10.992			-2.748
94501.000			10.992			-2.748
94600.000			10.993			-2.748
94700.000			10.993			-2.748
94801.000			10.993			-2.748
94900.000			10.992			-2.748
95000.000			10.993			-2.748
95102.000			10.992			-2.748
95201.000			10.993			-2.748
95300.000			10.991			-2.748
95401.000			10.990			-2.748
95500.000			10.990			-2.748
95600.000			10.990			-2.748
95701.000			10.990			-2.748
95800.000			10.991			-2.748
95901.000			10.990			-2.748
96002.000			10.990			-2.747
96100.000			10.990			-2.747
96200.000			10.989			-2.747
96301.000			10.989			-2.747
96400.000			10.989			-2.747
96500.000			10.990			-2.747
96601.000			10.990			-2.747
96701.000			10.990			-2.747
96801.000			10.989			-2.747
96902.000			10.989			-2.747
97000.000			10.988			-2.747
97100.000			10.987			-2.747
97200.000			10.988			-2.747
97300.000			10.989			-2.747
97401.000			10.989			-2.747
97500.000			10.988			-2.747
97601.000			10.987			-2.747
97702.000			10.988			-2.747
97800.000			10.989			-2.747
97900.000			10.987			-2.747
98001.000			10.987			-2.747
98100.000			10.986			-2.747
98200.000			10.986			-2.747
98301.000			10.986			-2.747
98400.000			10.986			-2.747
98501.000			10.986			-2.746
98602.000			10.986			-2.746
98700.000			10.986			-2.746
98800.000			10.986			-2.746
98901.000			10.986			-2.746
99000.000			10.985			-2.746
99100.000			10.985			-2.746
99201.000			10.985			-2.746
99301.000			10.984			-2.746
99401.000			10.984			-2.746
99501.000			10.984			-2.746
99600.000			10.984			-2.746
99700.000			10.984			-2.746
99801.000			10.984			-2.746
99900.000			10.985			-2.746
100000.000			10.984			-2.746
100101.000			10.984			-2.746
100201.000			10.984			-2.746
100302.000			10.984			-2.746
100400.000			10.984			-2.746
100500.000			10.983			-2.746
100601.000			10.982			-2.746
100700.000			10.983			-2.746
100800.000			10.982			-2.746
100901.000			10.981			-2.745
101001.000			10.981			-2.745
101101.000			10.982			-2.745
101201.000			10.981			-2.745
101300.000			10.981			-2.745
101400.000			10.981			-2.745
101501.000			10.981			-2.745
101600.000			10.981			-2.745
101700.000			10.980			-2.745
101801.000			10.980			-2.745
101901.000			10.981			-2.745
102001.000			10.981			-2.745
102101.000			10.980			-2.745
102200.000			10.979			-2.745
102300.000			10.979			-2.745
102401.000			10.980			-2.745
102500.000			10.980			-2.745
102600.000			10.980			-2.745
102702.000			10.980			-2.745
102801.000			10.980			-2.745
102900.000			10.979			-2.745
103001.000			10.978			-2.745
103100.000			10.979			-2.745
103200.000			10.979			-2.745
103301.000			10.978			-2.745
103400.000			10.977			-2.744
103502.000			10.978			-2.744
103601.000			10.979			-2.745
103701.000			10.979			-2.745
103801.000			10.979			-2.745
103900.000			10.979			-2.745
104000.000			10.978			-2.744
104101.000			10.978			-2.744
104200.000			10.977			-2.744
104300.000			10.977			-2.744
104402.000			10.976			-2.744
104501.000			10.976			-2.744
104600.000			10.976			-2.744
104701.000			10.977			-2.744
104800.000			10.976			-2.744
104900.000			10.976			-2.744
105001.000			10.976			-2.744
105100.000			10.977			-2.744
105200.000			10.976			-2.744
105302.000			10.976			-2.744
105401.000			10.975			-2.744
105501.000			10.975			-2.744
105601.000			10.975			-2.744
105700.000			10.974			-2.744
105800.000			10.975			-2.744
105901.000			10.975			-2.744
106000.000			10.976			-2.744
106100.000			10.975			-2.744
106202.000			10.974			-2.744
106301.000			10.975			-2.744
106400.000			10.974			-2.744
106501.000			10.974			-2.743
106600.000			10.973			-2.743
106700.000			10.973			-2.743
106800.000			10.972			-2.743
106900.000			10.973			-2.743
107001.000			10.973			-2.743
107101.000			10.974			-2.743
107201.000			10.972			-2.743
107301.000			10.972			-2.743
107400.000			10.973			-2.743
107500.000			10.972			-2.743
107601.000			10.971			-2.743
107700.000			10.972			-2.743
107800.000			10.972			-2.743
107902.000			10.973			-2.743
108001.000			10.971			-2.743
108100.000			10.970			-2.743
108201.000			10.970			-2.743
108300.000			10.971			-2.743
108400.000			10.970			-2.743
108501.000			10.971			-2.743
108600.000			10.970			-2.743
108700.000			10.970			-2.742
108802.000			10.970			-2.742
108901.000			10.971			-2.743
109000.000			10.969			-2.742
109101.000			10.969			-2.742
109200.000			10.970			-2.742
109300.000			10.970			-2.742
109401.000			10.969			-2.742
109500.000			10.969			-2.742
109601.000			10.969			-2.742
109702.000			10.969			-2.742
109801.000			10.969			-2.742
109900.000			10.969			-2.742
110000.000			10.968			-2.742
110100.000			10.968			-2.742
110201.000			10.968			-2.742
110300.000			10.967			-2.742
110400.000			10.967			-2.742
110502.000			10.967			-2.742
110601.000			10.967			-2.742
110700.000			10.967			-2.742
110801.000			10.967			-2.742
110900.000			10.967			-2.742
111000.000			10.968			-2.742
111101.000			10.968			-2.742
111200.000			10.967			-2.742
111300.000			10.966			-2.741
111402.000			10.966			-2.741
111501.000			10.966			-2.741
111600.000			10.966			-2.742
111701.000			10.966			-2.741
111800.000			10.965			-2.741
111900.000			10.965			-2.741
112001.000			10.965			-2.741
112100.000			10.965			-2.741
112201.000			10.964			-2.741
112302.000			10.964			-2.741
112400.000			10.964			-2.741
112500.000			10.964			-2.741
112601.000			10.964			-2.741
112700.000			10.964			-2.741
112800.000			10.964			-2.741
112901.000			10.963			-2.741
113001.000			10.963			-2.741
113102.000			10.963			-2.741
113201.000			10.963			-2.741
113300.000			10.963			-2.741
113401.000			10.963			-2.741
113500.000			10.962			-2.741
113600.000			10.962			-2.741
113701.000			10.962			-2.741
113800.000			10.963			-2.741
113901.000			10.962			-2.741
114002.000			10.962			-2.741
114100.000			10.962			-2.740
114200.000			10.963			-2.741
114301.000			10.963			-2.741
114400.000			10.961			-2.740
114500.000			10.961			-2.740
114601.000			10.961			-2.740
114701.000			10.960			-2.740
114801.000			10.961			-2.740
114901.000			10.961			-2.740
115000.000			10.961			-2.740
115100.000			10.961			-2.740
115201.000			10.961			-2.740
115300.000			10.961			-2.740
115400.000			10.961			-2.740
115501.000			10.961			-2.740
115601.000			10.961			-2.740
115701.000			10.961			-2.740
115801.000			10.959			-2.740
115900.000			10.959			-2.740
116000.000			10.960			-2.740
116101.000			10.960			-2.740
116200.000			10.960			-2.740
116300.000			10.959			-2.740
116402.000			10.959			-2.740
116501.000			10.960			-2.740
116601.000			10.960			-2.740
116700.000			10.960			-2.740
116800.000			10.958			-2.740
116901.000			10.958			-2.739
117000.000			10.958			-2.740
117100.000			10.958			-2.740
117201.000			10.957			-2.739
117301.000			10.957			-2.739
117401.000			10.959			-2.740
117501.000			10.958			-2.740
117600.000			10.957			-2.739
117700.000			10.957			-2.739
117801.000			10.958			-2.739
117900.000			10.958			-2.740
118000.000			10.958			-2.739
118101.000			10.956			-2.739
118201.000			10.956			-2.739
118301.000			10.956			-2.739
118401.000			10.956			-2.739
118500.000			10.956			-2.739
118600.000			10.956			-2.739
118701.000			10.956			-2.739
118800.000			10.956			-2.739
118900.000			10.956			-2.739
119002.000			10.956			-2.739
119101.000			10.956			-2.739
119200.000			10.954			-2.739
119301.000			10.955			-2.739
119400.000			10.956			-2.739
119500.000			10.956			-2.739
119600.000			10.955			-2.739
119700.000			10.954			-2.739
119801.000			10.955			-2.739
119901.000			10.954			-2.739
120001.000			10.954			-2.739
120101.000			10.955			-2.739
120200.000			10.954			-2.739
120300.000			10.954			-2.738
120401.000			10.953			-2.738
120500.000			10.953			-2.738
120600.000			10.954			-2.738
120702.000			10.954			-2.738
120801.000			10.954			-2.738
120901.000			10.953			-2.738
121001.000			10.953			-2.738
121100.000			10.953			-2.738
121200.000			10.952			-2.738
121301.000			10.952			-2.738
121400.000			10.952			-2.738
121500.000			10.951			-2.738
121602.000			10.951			-2.738
121701.000			10.952			-2.738
121800.000			10.952			-2.738
121901.000			10.953			-2.738
122000.000			10.952			-2.738
122100.000			10.952			-2.738
122201.000			10.952			-2.738
122300.000			10.951			-2.738
122401.000			10.951			-2.738
122502.000			10.950			-2.738
122600.000			10.951			-2.738
122700.000			10.951			-2.738
122800.000			10.951			-2.738
122900.000			10.950			-2.738
123001.000			10.949			-2.737
123100.000			10.950			-2.738
123200.000			10.950			-2.738
123302.000			10.950			-2.738
123401.000			10.950			-2.737
123500.000			10.949			-2.737
123601.000			10.949			-2.737
123700.000			10.950			-2.738
123800.000			10.950			-2.737
123901.000			10.950			-2.737
124000.000			10.949			-2.737
124101.000			10.949			-2.737
124202.000			10.948			-2.737
124300.000			10.949			-2.737
124400.000			10.950			-2.737
124501.000			10.950			-2.737
124600.000			10.950			-2.737
124700.000			10.949			-2.737
124801.000			10.948			-2.737
124900.000			10.948			-2.737
125001.000			10.946			-2.737
125102.000			10.947			-2.737
125200.000			10.948			-2.737
125300.000			10.947			-2.737
125401.000			10.947			-2.737
125500.000			10.948			-2.737
125600.000			10.947			-2.737
125701.000			10.947			-2.737
125801.000			10.947			-2.737
125902.000			10.947			-2.737
126001.000			10.947			-2.737
126100.000			10.946			-2.737
126201.000			10.947			-2.737
126300.000			10.946			-2.736
126400.000			10.945			-2.736
126501.000			10.946			-2.736
126600.000			10.946			-2.736
126701.000			10.946			-2.736
126802.000			10.946			-2.736
126900.000			10.945			-2.736
127000.000			10.945			-2.736
127101.000			10.945			-2.736
127200.000			10.943			-2.736
127300.000			10.943			-2.736
127401.000			10.943			-2.736
127501.000			10.944			-2.736
127601.000			10.944			-2.736
127702.000			10.943			-2.736
127800.000			10.943			-2.736
127900.000			10.945			-2.736
128001.000			10.944			-2.736
128100.000			10.945			-2.736
128200.000			10.944			-2.736
128301.000			10.943			-2.736
128401.000			10.944			-2.736
128501.000			10.944			-2.736
128601.000			10.943			-2.736
128700.000			10.942			-2.736
128800.000			10.942			-2.735
128901.000			10.941			-2.735
129000.000			10.942			-2.735
129100.000			10.942			-2.736
129202.000			10.942			-2.736
129301.000			10.943			-2.736
129402.000			10.942			-2.735
129500.000			10.942			-2.735
129600.000			10.941			-2.735
129701.000			10.941			-2.735
129800.000			10.941			-2.735
129900.000			10.941			-2.735
130001.000			10.941			-2.735
130101.000			10.941			-2.735
130201.000			10.941			-2.735
130301.000			10.940			-2.735
130400.000			10.940			-2.735
130500.000			10.941			-2.735
130601.000			10.940			-2.735
130700.000			10.939			-2.735
130800.000			10.940			-2.735
130902.000			10.939			-2.735
131001.000			10.940			-2.735
131100.000			10.940			-2.735
131201.000			10.941			-2.735
131300.000			10.940			-2.735
131400.000			10.940			-2.735
131501.000			10.939			-2.735
131600.000			10.938			-2.735
131700.000			10.938			-2.735
131802.000			10.939			-2.735
131901.000			10.939			-2.735
132001.000			10.938			-2.735
132101.000			10.938			-2.735
132200.000			10.938			-2.735
132300.000			10.938			-2.735
132400.000			10.937			-2.734
132500.000			10.938			-2.735
132601.000			10.939			-2.735
132701.000			10.938			-2.734
132801.000			10.937			-2.734
132902.000			10.937			-2.734
133000.000			10.937			-2.734
133100.000			10.937			-2.734
133201.000			10.937			-2.734
133300.000			10.938			-2.734
133400.000			10.938			-2.734
133501.000			10.937			-2.734
133601.000			10.936			-2.734
133701.000			10.937			-2.734
133802.000			10.936			-2.734
133900.000			10.935			-2.734
134000.000			10.935			-2.734
134101.000			10.935			-2.734
134200.000			10.935			-2.734
134300.000			10.936			-2.734
134401.000			10.935			-2.734
134500.000			10.934			-2.734
134601.000			10.935			-2.734
134702.000			10.935			-2.734
134800.000			10.935			-2.734
134900.000			10.935			-2.734
135001.000			10.935			-2.734
135100.000			10.934			-2.734
135200.000			10.934			-2.733
135301.000			10.934			-2.733
135400.000			10.934			-2.734
135502.000			10.933			-2.733
135601.000			10.933			-2.733
135701.000			10.933			-2.733
135801.000			10.933			-2.733
135900.000			10.933			-2.733
136000.000			10.933			-2.733
136101.000			10.932			-2.733
136200.000			10.933			-2.733
136300.000			10.933			-2.733
136402.000			10.933			-2.733
136501.000			10.933			-2.733
136601.000			10.932			-2.733
136701.000			10.932			-2.733
136800.000			10.932			-2.733
136900.000			10.931			-2.733
137001.000			10.933			-2.733
137100.000			10.932			-2.733
137200.000			10.932			-2.733
137302.000			10.932			-2.733
137401.000			10.931			-2.733
137501.000			10.931			-2.733
137601.000			10.930			-2.733
137700.000			10.931			-2.733
137800.000			10.931			-2.733
137901.000			10.932			-2.733
138000.000			10.932			-2.733
138100.000			10.930			-2.733
138202.000			10.931			-2.733
138301.000			10.931			-2.733
138401.000			10.932			-2.733
138501.000			10.931			-2.733
138600.000			10.931			-2.733
138700.000			10.931			-2.733
138800.000			10.929			-2.732
138900.000			10.930			-2.732
139001.000			10.930			-2.732
139100.000			10.930			-2.732
139201.000			10.930			-2.733
139302.000			10.929			-2.732
139400.000			10.929			-2.732
139500.000			10.929			-2.732
139601.000			10.929			-2.732
139700.000			10.929			-2.732
139800.000			10.929			-2.732
139901.000			10.928			-2.732
140000.000			10.929			-2.732
140101.000			10.928			-2.732
140202.000			10.928			-2.732
140301.000			10.929			-2.732
140400.000			10.929			-2.732
140501.000			10.928			-2.732
140600.000			10.928			-2.732
140700.000			10.927			-2.732
140801.000			10.927			-2.732
140900.000			10.927			-2.732
141000.000			10.928			-2.732
141102.000			10.928			-2.732
141201.000			10.928			-2.732
141300.000			10.928			-2.732
141401.000			10.927			-2.732
141500.000			10.927			-2.732
141600.000			10.926			-2.732
141701.000			10.927			-2.732
141800.000			10.928			-2.732
141900.000			10.927			-2.732
142002.000			10.927			-2.732
142101.000			10.927			-2.732
142202.000			10.927			-2.732
142300.000			10.927			-2.732
142400.000			10.927			-2.732
142501.000			10.927			-2.732
142600.000			10.926			-2.731
142700.000			10.926			-2.731
142801.000			10.925			-2.731
142901.000			10.925			-2.731
143001.000			10.924			-2.731
143102.000			10.924			-2.731
143200.000			10.924			-2.731
143300.000			10.925			-2.731
143401.000			10.924			-2.731
143500.000			10.924			-2.731
143600.000			10.925			-2.731
143701.000			10.925			-2.731
143800.000			10.925			-2.731
143901.000			10.925			-2.731
144002.000			10.924			-2.731
144100.000			10.923			-2.731
144200.000			10.922			-2.731
144301.000			10.923			-2.731
144400.000			10.923			-2.731
144500.000			10.923			-2.731
144601.000			10.924			-2.731
144700.000			10.924			-2.731
144801.000			10.923			-2.731
144902.000			10.923			-2.731
145000.000			10.923			-2.731
145100.000			10.923			-2.731
145200.000			10.922			-2.731
145300.000			10.923			-2.731
145401.000			10.922			-2.731
145500.000			10.923			-2.731
145600.000			10.922			-2.731
145702.000			10.921			-2.730
145801.000			10.921			-2.730
145900.000			10.921			-2.730
146001.000			10.921			-2.730
146100.000			10.922			-2.730
146200.000			10.921			-2.730
146301.000			10.922			-2.731
146400.000			10.922			-2.730
146500.000			10.921			-2.730
146602.000			10.921			-2.730
146701.000			10.921			-2.730
146800.000			10.921			-2.730
146901.000			10.921			-2.730
147000.000			10.921			-2.730
147100.000			10.921			-2.730
147201.000			10.921			-2.730
147300.000			10.921			-2.730
147400.000			10.920			-2.730
147502.000			10.920			-2.730
147601.000			10.920			-2.730
147701.000			10.920			-2.730
147801.000			10.920			-2.730
147900.000			10.920			-2.730
148000.000			10.920			-2.730
148101.000			10.921			-2.730
148200.000			10.920			-2.730
148300.000			10.920			-2.730
148402.000			10.919			-2.730
148501.000			10.919			-2.730
148602.000			10.919			-2.730
148700.000			10.919			-2.730
148800.000			10.919			-2.730
148901.000			10.918			-2.730
149000.000			10.919			-2.730
149100.000			10.917			-2.729
149201.000			10.918			-2.729
149300.000			10.919			-2.730
149401.000			10.918			-2.730
149502.000			10.918			-2.729
149601.000			10.918			-2.729
149700.000			10.918			-2.729
149801.000			10.918			-2.729
149900.000			10.918			-2.729
150000.000			10.918			-2.730
150101.000			10.917			-2.729
150200.000			10.918			-2.729
150300.000			10.917			-2.729
150402.000			10.916			-2.729
150501.000			10.917			-2.729
150600.000			10.917			-2.729
150701.000			10.917			-2.729
150800.000			10.916			-2.729
150900.000			10.917			-2.729
151001.000			10.916			-2.729
151100.000			10.916			-2.729
151200.000			10.916			-2.729
151302.000			10.917			-2.729
151401.000			10.917			-2.729
151500.000			10.917			-2.729
151600.000			10.916			-2.729
151700.000			10.915			-2.729
151801.000			10.916			-2.729
151900.000			10.916			-2.729
152000.000			10.915			-2.729
152101.000			10.915			-2.729
152201.000			10.916			-2.729
152301.000			10.915			-2.729
152401.000			10.914			-2.729
152500.000			10.915			-2.729
152600.000			10.915			-2.729
152701.000			10.915			-2.729
152800.000			10.915			-2.729
152900.000			10.915			-2.729
153001.000			10.914			-2.729
153101.000			10.914			-2.728
153201.000			10.913			-2.728
153302.000			10.914			-2.728
153400.000			10.914			-2.729
153500.000			10.913			-2.728
153601.000			10.913			-2.728
153700.000			10.913			-2.728
153800.000			10.913			-2.728
153901.000			10.913			-2.728
154001.000			10.914			-2.728
154101.000			10.914			-2.728
154202.000			10.913			-2.728
154300.000			10.913			-2.728
154400.000			10.912			-2.728
154501.000			10.912			-2.728
154600.000			10.912			-2.728
154700.000			10.912			-2.728
154800.000			10.912			-2.728
154900.000			10.913			-2.728
155002.000			10.913			-2.728
155101.000			10.912			-2.728
155200.000			10.913			-2.728
155301.000			10.912			-2.728
155400.000			10.912			-2.728
155500.000			10.912			-2.728
155601.000			10.912			-2.728
155700.000			10.911			-2.728
155800.000			10.911			-2.728
155902.000			10.910			-2.728
156001.000			10.911			-2.728
156100.000			10.910			-2.728
156201.000			10.911			-2.728
156300.000			10.911			-2.728
156400.000			10.911			-2.728
156501.000			10.910			-2.728
156600.000			10.910			-2.728
156700.000			10.911			-2.728
156802.000			10.911			-2.728
156901.000			10.910			-2.728
157000.000			10.910			-2.728
157101.000			10.911			-2.728
157200.000			10.910			-2.727
157300.000			10.910			-2.727
157401.000			10.910			-2.728
157500.000			10.911			-2.728
157600.000			10.911			-2.728
157702.000			10.910			-2.727
157801.000			10.909			-2.727
157900.000			10.907			-2.727
158000.000			10.908			-2.727
158100.000			10.907			-2.727
158201.000			10.908			-2.727
158300.000			10.909			-2.727
158400.000			10.909			-2.727
158501.000			10.909			-2.727
158601.000			10.909			-2.727
158701.000			10.908			-2.727
158802.000			10.908			-2.727
158900.000			10.908			-2.727
159000.000			10.909			-2.727
159101.000			10.908			-2.727
159200.000			10.909			-2.727
159300.000			10.909			-2.727
159401.000			10.908			-2.727
159500.000			10.908			-2.727
159601.000			10.909			-2.727
159702.000			10.909			-2.727
159800.000			10.907			-2.727
159900.000			10.907			-2.727
160001.000			10.907			-2.727
160100.000			10.906			-2.727
160200.000			10.907			-2.727
160301.000			10.907			-2.727
160400.000			10.907			-2.727
160501.000			10.907			-2.727
160602.000			10.906			-2.727
160701.000			10.905			-2.726
160800.000			10.905			-2.726
160901.000			10.906			-2.727
161000.000			10.906			-2.727
161100.000			10.906			-2.727
161200.000			10.906			-2.726
161300.000			10.905			-2.726
161402.000			10.906			-2.726
161501.000			10.905			-2.726
161601.000			10.905			-2.726
161701.000			10.905			-2.726
161800.000			10.905			-2.726
161900.000			10.906			-2.726
162001.000			10.905			-2.726
162100.000			10.905			-2.726
162200.000			10.906			-2.726
162302.000			10.905			-2.726
162401.000			10.905			-2.726
162501.000			10.905			-2.726
162601.000			10.904			-2.726
162700.000			10.904			-2.726
162800.000			10.904			-2.726
162901.000			10.904			-2.726
163000.000			10.904			-2.726
163100.000			10.903			-2.726
163202.000			10.903			-2.726
163301.000			10.903			-2.726
163401.000			10.904			-2.726
163501.000			10.904			-2.726
163600.000			10.903			-2.726
163700.000			10.902			-2.726
163801.000			10.903			-2.726
163900.000			10.902			-2.726
164000.000			10.902			-2.725
164102.000			10.903			-2.726
164201.000			10.902			-2.726
164302.000			10.903			-2.726
164400.000			10.903			-2.726
164500.000			10.903			-2.726
164601.000			10.903			-2.726
164700.000			10.902			-2.726
164800.000			10.902			-2.726
164901.000			10.903			-2.726
165000.000			10.902			-2.725
165101.000			10.901			-2.725
165202.000			10.902			-2.725
165300.000			10.902			-2.726
165400.000			10.902			-2.726
165501.000			10.902			-2.725
165600.000			10.901			-2.725
165700.000			10.902			-2.725
165801.000			10.902			-2.725
165900.000			10.901			-2.725
166001.000			10.900			-2.725
166102.000			10.900			-2.725
166200.000			10.900			-2.725
166300.000			10.900			-2.725
166401.000			10.900			-2.725
166500.000			10.901			-2.725
166600.000			10.901			-2.725
166701.000			10.900			-2.725
166800.000			10.900			-2.725
166901.000			10.901			-2.725
167002.000			10.901			-2.725
167100.000			10.899			-2.725
167200.000			10.900			-2.725
167301.000			10.900			-2.725
167400.000			10.899			-2.725
167500.000			10.900			-2.725
167600.000			10.899			-2.725
167700.000			10.898			-2.724
167801.000			10.898			-2.725
167901.000			10.899			-2.725
168001.000			10.899			-2.725
168101.000			10.899			-2.725
168200.000			10.898			-2.725
168300.000			10.898			-2.724
168401.000			10.897			-2.724
168500.000			10.898			-2.724
168600.000			10.898			-2.725
168701.000			10.898			-2.725
168801.000			10.899			-2.725
168901.000			10.898			-2.724
169002.000			10.897			-2.724
169100.000			10.898			-2.724
169200.000			10.898			-2.724
169301.000			10.898			-2.724
169400.000			10.897			-2.724
169500.000			10.897			-2.724
169601.000			10.898			-2.724
169700.000			10.897			-2.724
169801.000			10.898			-2.724
169902.000			10.897			-2.724
170001.000			10.897			-2.724
170100.000			10.897			-2.724
170201.000			10.897			-2.724
170300.000			10.899			-2.725
170400.000			10.897			-2.724
170501.000			10.897			-2.724
170600.000			10.897			-2.724
170700.000			10.896			-2.724
170802.000			10.896			-2.724
170901.000			10.895			-2.724
171002.000			10.895			-2.724
171100.000			10.894			-2.724
171200.000			10.895			-2.724
171301.000			10.895			-2.724
171400.000			10.895			-2.724
171500.000			10.895			-2.724
171601.000			10.895			-2.724
171700.000			10.895			-2.724
171801.000			10.894			-2.724
171902.000			10.894			-2.723
172000.000			10.894			-2.723
172100.000			10.895			-2.724
172201.000			10.895			-2.724
172300.000			10.896			-2.724
172400.000			10.895			-2.724
172501.000			10.894			-2.724
172600.000			10.895			-2.724
172701.000			10.895			-2.724
172802.000			10.896			-2.724
172901.000			10.894			-2.724
173000.000			10.895			-2.724
173101.000			10.894			-2.724
173200.000			10.893			-2.723
173300.000			10.894			-2.724
173401.000			10.894			-2.724
173500.000			10.893			-2.723
173600.000			10.893			-2.723
173702.000			10.893			-2.723
173801.000			10.893			-2.723
173900.000			10.894			-2.723
174000.000			10.893			-2.723
174100.000			10.893			-2.723
174201.000			10.894			-2.723
174300.000			10.894			-2.723
174400.000			10.893			-2.723
174501.000			10.892			-2.723
174601.000			10.892			-2.723
174701.000			10.893			-2.723
174802.000			10.893			-2.723
174900.000			10.892			-2.723
175000.000			10.893			-2.723
175101.000			10.893			-2.723
175200.000			10.892			-2.723
175300.000			10.892			-2.723
175401.000			10.893			-2.723
175500.000			10.892			-2.723
175601.000			10.891			-2.723
175702.000			10.891			-2.723
175801.000			10.891			-2.723
175900.000			10.891			-2.723
176001.000			10.891			-2.723
176100.000			10.892			-2.723
176200.000			10.891			-2.723
176301.000			10.891			-2.723
176400.000			10.891			-2.723
176500.000			10.891			-2.723
176602.000			10.890			-2.723
176701.000			10.889			-2.722
176800.000			10.890			-2.722
176901.000			10.890			-2.722
177000.000			10.889			-2.722
177100.000			10.891			-2.723
177200.000			10.891			-2.723
177300.000			10.889			-2.722
177401.000			10.889			-2.722
177501.000			10.888			-2.722
177601.000			10.889			-2.722
177702.000			10.890			-2.723
177800.000			10.891			-2.723
177900.000			10.890			-2.723
178001.000			10.890			-2.722
178100.000			10.889			-2.722
178200.000			10.889			-2.722
178301.000			10.889			-2.722
178400.000			10.889			-2.722
178501.000			10.889			-2.722
178602.000			10.888			-2.722
178701.000			10.888			-2.722
178800.000			10.889			-2.722
178901.000			10.888			-2.722
179000.000			10.888			-2.722
179100.000			10.888			-2.722
179201.000			10.889			-2.722
179300.000			10.889			-2.722
179400.000			10.889			-2.722
179502.000			10.888			-2.722
179601.000			10.887			-2.722
179701.000			10.887			-2.722
179801.000			10.887			-2.722
179900.000			10.887			-2.722
180000.000			10.887			-2.722
180101.000			10.887			-2.722
180200.000			10.888			-2.722
180300.000			10.888			-2.722
180400.000			10.888			-2.722
180501.000			10.887			-2.722
180602.000			10.887			-2.722
180700.000			10.887			-2.722
180800.000			10.887			-2.722
180901.000			10.887			-2.722
181000.000			10.888			-2.722
181100.000			10.887			-2.722
181201.000			10.887			-2.722
181300.000			10.886			-2.722
181400.000			10.886			-2.722
181502.000			10.887			-2.722
181601.000			10.887			-2.722
181700.000			10.887			-2.722
181801.000			10.886			-2.722
181900.000			10.886			-2.722
182000.000			10.886			-2.722
182101.000			10.886			-2.721
182200.000			10.886			-2.722
182300.000			10.886			-2.721
182402.000			10.885			-2.721
182501.000			10.885			-2.721
182601.000			10.885			-2.721
182701.000			10.885			-2.721
182800.000			10.885			-2.721
182900.000			10.885			-2.721
183001.000			10.885			-2.721
183100.000			10.884			-2.721
183200.000			10.885			-2.721
183301.000			10.886			-2.721
183401.000			10.885			-2.721
183502.000			10.884			-2.721
183600.000			10.884			-2.721
183700.000			10.883			-2.721
183801.000			10.884			-2.721
183900.000			10.884			-2.721
184000.000			10.885			-2.721
184101.000			10.884			-2.721
184200.000			10.884			-2.721
184300.000			10.884			-2.721
184402.000			10.885			-2.721
184501.000			10.884			-2.721
184600.000			10.884			-2.721
184701.000			10.884			-2.721
184800.000			10.884			-2.721
184900.000			10.883			-2.721
185001.000			10.884			-2.721
185100.000			10.884			-2.721
185200.000			10.883			-2.721
185302.000			10.883			-2.721
185401.000			10.882			-2.721
185500.000			10.883			-2.721
185601.000			10.883			-2.721
185700.000			10.882			-2.721
185800.000			10.882			-2.721
185901.000			10.882			-2.720
186000.000			10.882			-2.721
186100.000			10.882			-2.720
186202.000			10.882			-2.721
186301.000			10.883			-2.721
186401.000			10.883			-2.721
186501.000			10.882			-2.721
186600.000			10.882			-2.720
186700.000			10.882			-2.721
186800.000			10.883			-2.721
186900.000			10.882			-2.720
187001.000			10.881			-2.720
187100.000			10.882			-2.720
187201.000			10.882			-2.720
187302.000			10.882			-2.721
187401.000			10.881			-2.720
187500.000			10.880			-2.720
187601.000			10.880			-2.720
187700.000			10.880			-2.720
187800.000			10.881			-2.720
187901.000			10.881			-2.720
188000.000			10.880			-2.720
188100.000			10.881			-2.720
188202.000			10.880			-2.720
188301.000			10.880			-2.720
188401.000			10.880			-2.720
188501.000			10.880			-2.720
188600.000			10.880			-2.720
188700.000			10.880			-2.720
188801.000			10.880			-2.720
188900.000			10.880			-2.720
189000.000			10.880			-2.720
189101.000			10.879			-2.720
189201.000			10.879			-2.720
189301.000			10.880			-2.720
189401.000			10.880			-2.720
189500.000			10.879			-2.720
189600.000			10.879			-2.720
189701.000			10.878			-2.720
189800.000			10.879			-2.720
189900.000			10.879			-2.720
190000.000			10.878			-2.720
190100.000			10.878			-2.720
190202.000			10.879			-2.720
190301.000			10.878			-2.719
190400.000			10.878			-2.719
190501.000			10.877			-2.719
190600.000			10.878			-2.720
190700.000			10.879			-2.720
190801.000			10.879			-2.720
190900.000			10.879			-2.720
191000.000			10.878			-2.720
191101.000			10.878			-2.719
191201.000			10.877			-2.719
191301.000			10.877			-2.719
191401.000			10.877			-2.719
191500.000			10.878			-2.720
191600.000			10.877			-2.719
191701.000			10.876			-2.719
191800.000			10.878			-2.719
191900.000			10.877			-2.719
192001.000			10.876			-2.719
192101.000			10.876			-2.719
192201.000			10.877			-2.719
192302.000			10.876			-2.719
192400.000			10.877			-2.719
192500.000			10.877			-2.719
192601.000			10.875			-2.719
192700.000			10.877			-2.719
192800.000			10.877			-2.719
192901.000			10.876			-2.719
193000.000			10.876			-2.719
193102.000			10.876			-2.719
193201.000			10.876			-2.719
193300.000			10.877			-2.719
193401.000			10.876			-2.719
193500.000			10.876			-2.719
193600.000			10.876			-2.719
193701.000			10.876			-2.719
193800.000			10.876			-2.719
193900.000			10.876			-2.719
194001.000			10.876			-2.719
194101.000			10.875			-2.719
194201.000			10.874			-2.718
194301.000			10.874			-2.718
194400.000			10.874			-2.719
194500.000			10.874			-2.718
194601.000			10.874			-2.719
194700.000			10.875			-2.719
194800.000			10.874			-2.719
194901.000			10.873			-2.718
195001.000			10.874			-2.718
195101.000			10.875			-2.719
195202.000			10.875			-2.719
195300.000			10.874			-2.718
195400.000			10.874			-2.718
195501.000			10.874			-2.719
195600.000			10.875			-2.719
195700.000			10.874			-2.718
195801.000			10.874			-2.718
195900.000			10.874			-2.718
196001.000			10.873			-2.718
196102.000			10.873			-2.718
196201.000			10.873			-2.718
196300.000			10.874			-2.718
196400.000			10.873			-2.718
196500.000			10.873			-2.718
196601.000			10.872			-2.718
196700.000			10.872			-2.718
196800.000			10.874			-2.719
196901.000			10.873			-2.718
197001.000			10.874			-2.718
197101.000			10.874			-2.718
197201.000			10.873			-2.718
197300.000			10.873			-2.718
197400.000			10.873			-2.718
197501.000			10.872			-2.718
197600.000			10.872			-2.718
197700.000			10.872			-2.718
197801.000			10.873			-2.718
197901.000			10.872			-2.718
198001.000			10.872			-2.718
198102.000			10.872			-2.718
198200.000			10.872			-2.718
198300.000			10.871			-2.718
198401.000			10.872			-2.718
198500.000			10.872			-2.718
198600.000			10.871			-2.718
198701.000			10.870			-2.718
198800.000			10.870			-2.718
198901.000			10.870			-2.718
199002.000			10.871			-2.718
199100.000			10.871			-2.718
199200.000			10.871			-2.718
199301.000			10.871			-2.718
199400.000			10.872			-2.718
199500.000			10.871			-2.718
199600.000			10.870			-2.718
199700.000			10.870			-2.718
199802.000			10.871			-2.718
199901.000			10.870			-2.718
200001.000			10.871			-2.718
200101.000			10.871			-2.718
200200.000			10.869			-2.717
200300.000			10.869			-2.717
200401.000			10.870			-2.717
200500.000			10.870			-2.718
200600.000			10.869			-2.717
200701.000			10.869			-2.717
200801.000			10.869			-2.717
200901.000			10.869			-2.717
201001.000			10.869			-2.717
201100.000			10.869			-2.717
201200.000			10.869			-2.717
201301.000			10.868			-2.717
201400.000			10.868			-2.717
201500.000			10.868			-2.717
201601.000			10.868			-2.717
201701.000			10.870			-2.717
201801.000			10.869			-2.717
201901.000			10.869			-2.717
202000.000			10.868			-2.717
202100.000			10.868			-2.717
202201.000			10.867			-2.717
202300.000			10.867			-2.717
202400.000			10.867			-2.717
202501.000			10.868			-2.717
202601.000			10.868			-2.717
202702.000			10.867			-2.717
202801.000			10.868			-2.717
202900.000			10.868			-2.717
203001.000			10.867			-2.717
203100.000			10.867			-2.717
203200.000			10.868			-2.717
203301.000			10.868			-2.717
203400.000			10.868			-2.717
203501.000			10.867			-2.717
203602.000			10.866			-2.717
203701.000			10.866			-2.717
203800.000			10.867			-2.717
203901.000			10.866			-2.716
204000.000			10.866			-2.716
204100.000			10.866			-2.717
204201.000			10.866			-2.716
204300.000			10.866			-2.717
204400.000			10.867			-2.717
204502.000			10.867			-2.717
204601.000			10.867			-2.717
204700.000			10.865			-2.716
204801.000			10.865			-2.716
204900.000			10.866			-2.716
205000.000			10.865			-2.716
205101.000			10.866			-2.717
205200.000			10.866			-2.717
205300.000			10.867			-2.717
205402.000			10.867			-2.717
205501.000			10.865			-2.716
205600.000			10.865			-2.716
205701.000			10.865			-2.716
205800.000			10.865			-2.716
205900.000			10.865			-2.716
206000.000			10.865			-2.716
206100.000			10.865			-2.716
206201.000			10.865			-2.716
206301.000			10.864			-2.716
206401.000			10.865			-2.716
206502.000			10.864			-2.716
206600.000			10.864			-2.716
206700.000			10.864			-2.716
206801.000			10.864			-2.716
206900.000			10.864			-2.716
207000.000			10.865			-2.716
207101.000			10.864			-2.716
207201.000			10.864			-2.716
207301.000			10.864			-2.716
207402.000			10.864			-2.716
207500.000			10.863			-2.716
207600.000			10.864			-2.716
207701.000			10.864			-2.716
207800.000			10.864			-2.716
207900.000			10.864			-2.716
208001.000			10.863			-2.716
208100.000			10.863			-2.716
208201.000			10.864			-2.716
208302.000			10.863			-2.716
208400.000			10.864			-2.716
208500.000			10.864			-2.716
208601.000			10.864			-2.716
208700.000			10.863			-2.716
208800.000			10.862			-2.716
208901.000			10.862			-2.716
209000.000			10.863			-2.716
209102.000			10.863			-2.716
209201.000			10.863			-2.716
209301.000			10.862			-2.716
209401.000			10.861			-2.715
209500.000			10.862			-2.715
209600.000			10.862			-2.716
209701.000			10.862			-2.716
209800.000			10.862			-2.716
209900.000			10.862			-2.715
210001.000			10.862			-2.716
210101.000			10.862			-2.716
210201.000			10.862			-2.716
210301.000			10.862			-2.715
210400.000			10.862			-2.715
210500.000			10.862			-2.715
210601.000			10.861			-2.715
210700.000			10.862			-2.715
210800.000			10.862			-2.715
210901.000			10.860			-2.715
211001.000			10.861			-2.715
211101.000			10.861			-2.715
211201.000			10.861			-2.715
211300.000			10.861			-2.715
211400.000			10.860			-2.715
211501.000			10.859			-2.715
211600.000			10.860			-2.715
211700.000			10.861			-2.715
211801.000			10.860			-2.715
211901.000			10.860			-2.715
212001.000			10.860			-2.715
212101.000			10.860			-2.715
212200.000			10.860			-2.715
212300.000			10.860			-2.715
212400.000			10.859			-2.715
212500.000			10.859			-2.715
212601.000			10.860			-2.715
212700.000			10.860			-2.715
212801.000			10.860			-2.715
212902.000			10.859			-2.715
213001.000			10.860			-2.715
213100.000			10.858			-2.715
213201.000			10.858			-2.715
213300.000			10.859			-2.715
213400.000			10.859			-2.715
213501.000			10.859			-2.715
213600.000			10.859			-2.715
213701.000			10.859			-2.715
213802.000			10.859			-2.715
213901.000			10.859			-2.715
214000.000			10.859			-2.715
214101.000			10.858			-2.714
214200.000			10.857			-2.714
214300.000			10.858			-2.714
214401.000			10.858			-2.714
214500.000			10.858			-2.715
214600.000			10.858			-2.715
214702.000			10.858			-2.714
214801.000			10.858			-2.714
214900.000			10.858			-2.714
215001.000			10.858			-2.714
215100.000			10.857			-2.714
215200.000			10.858			-2.714
215301.000			10.858			-2.714
215400.000			10.857			-2.714
215500.000			10.857			-2.714
215602.000			10.858			-2.714
215701.000			10.858			-2.715
215802.000			10.857			-2.714
215900.000			10.857			-2.714
216000.000			10.857			-2.714
216101.000			10.858			-2.715
216200.000			10.859			-2.715
216300.000			10.857			-2.714
216401.000			10.857			-2.714
216500.000			10.858			-2.714
216601.000			10.856			-2.714
216702.000			10.856			-2.714
216800.000			10.857			-2.714
216900.000			10.856			-2.714
217001.000			10.856			-2.714
217100.000			10.856			-2.714
217200.000			10.857			-2.714
217301.000			10.856			-2.714
217400.000			10.856			-2.714
217501.000			10.855			-2.714
217602.000			10.855			-2.714
217701.000			10.856			-2.714
217800.000			10.857			-2.714
217901.000			10.857			-2.714
218000.000			10.856			-2.714
218100.000			10.855			-2.714
218201.000			10.855			-2.714
218300.000			10.855			-2.714
218400.000			10.855			-2.714
218502.000			10.855			-2.714
218601.000			10.855			-2.714
218700.000			10.855			-2.714
218800.000			10.855			-2.714
218900.000			10.854			-2.714
219001.000			10.855			-2.714
219100.000			10.856			-2.714
219200.000			10.855			-2.714
219301.000			10.855			-2.714
219401.000			10.854			-2.713
219501.000			10.853			-2.713
219601.000			10.853			-2.713
219700.000			10.854			-2.713
219800.000			10.854			-2.714
219901.000			10.855			-2.714
220000.000			10.855			-2.714
220100.000			10.853			-2.713
220201.000			10.853			-2.713
220301.000			10.854			-2.713
220401.000			10.854			-2.714
220502.000			10.854			-2.714
220600.000			10.854			-2.714
220700.000			10.853			-2.713
220801.000			10.853			-2.713
220900.000			10.854			-2.713
221000.000			10.853			-2.713
221101.000			10.853			-2.713
221201.000			10.853			-2.713
221301.000			10.852			-2.713
221402.000			10.853			-2.713
221500.000			10.853			-2.713
221600.000			10.853			-2.713
221701.000			10.853			-2.713
221800.000			10.854			-2.713
221900.000			10.854			-2.713
222000.000			10.853			-2.713
222101.000			10.852			-2.713
222202.000			10.852			-2.713
222301.000			10.852			-2.713
222400.000			10.853			-2.713
222501.000			10.853			-2.713
222600.000			10.852			-2.713
222700.000			10.852			-2.713
222801.000			10.852			-2.713
222900.000			10.853			-2.713
223001.000			10.850			-2.713
223102.000			10.850			-2.713
223201.000			10.851			-2.713
223300.000			10.852			-2.713
223401.000			10.851			-2.713
223500.000			10.850			-2.713
223600.000			10.851			-2.713
223701.000			10.851			-2.713
223800.000			10.852			-2.713
223901.000			10.852			-2.713
224002.000			10.852			-2.713
224101.000			10.851			-2.713
224200.000			10.851			-2.713
224301.000			10.850			-2.713
224400.000			10.850			-2.712
224500.000			10.850			-2.713
224601.000			10.850			-2.712
224700.000			10.849			-2.712
224801.000			10.850			-2.712
224902.000			10.850			-2.713
225001.000			10.850			-2.713
225100.000			10.850			-2.712
225200.000			10.849			-2.712
225300.000			10.850			-2.712
225401.000			10.849			-2.712
225500.000			10.850			-2.712
225600.000			10.850			-2.712
225702.000			10.849			-2.712
225801.000			10.848			-2.712
225901.000			10.849			-2.712
226001.000			10.849			-2.712
226100.000			10.848			-2.712
226200.000			10.849			-2.712
226301.000			10.849			-2.712
226400.000			10.849			-2.712
226500.000			10.848			-2.712
226601.000			10.848			-2.712
226701.000			10.850			-2.712
226801.000			10.849			-2.712
226901.000			10.849			-2.712
227000.000			10.848			-2.712
227100.000			10.848			-2.712
227201.000			10.849			-2.712
227300.000			10.849			-2.712
227400.000			10.848			-2.712
227501.000			10.848			-2.712
227601.000			10.848			-2.712
227701.000			10.847			-2.712
227802.000			10.848			-2.712
227900.000			10.848			-2.712
228000.000			10.848			-2.712
228101.000			10.848			-2.712
228200.000			10.848			-2.712
228300.000			10.848			-2.712
228400.000			10.848			-2.712
228500.000			10.847			-2.712
228602.000			10.848			-2.712
228701.000			10.847			-2.712
228801.000			10.848			-2.712
228901.000			10.847			-2.712
229000.000			10.846			-2.711
229100.000			10.846			-2.712
229201.000			10.847			-2.712
229300.000			10.846			-2.711
229400.000			10.847			-2.712
229502.000			10.847			-2.712
229601.000			10.846			-2.711
229701.000			10.846			-2.711
229801.000			10.846			-2.711
229900.000			10.847			-2.712
230000.000			10.846			-2.711
230101.000			10.845			-2.711
230200.000			10.846			-2.711
230300.000			10.846			-2.711
230401.000			10.846			-2.711
230501.000			10.847			-2.712
230601.000			10.847			-2.712
230701.000			10.846			-2.712
230800.000			10.846			-2.711
230900.000			10.846			-2.712
231001.000			10.846			-2.711
231100.000			10.845			-2.711
231200.000			10.845			-2.711
231301.000			10.845			-2.711
231401.000			10.845			-2.711
231502.000			10.845			-2.711
231600.000			10.845			-2.711
231700.000			10.845			-2.711
231801.000			10.844			-2.711
231900.000			10.845			-2.711
232000.000			10.846			-2.711
232101.000			10.845			-2.711
232200.000			10.844			-2.711
232301.000			10.845			-2.711
232402.000			10.845			-2.711
232501.000			10.844			-2.711
232600.000			10.844			-2.711
232701.000			10.845			-2.711
232800.000			10.845			-2.711
232900.000			10.845			-2.711
233001.000			10.845			-2.711
233100.000			10.844			-2.711
233201.000			10.843			-2.711
233302.000			10.844			-2.711
233401.000			10.843			-2.711
233500.000			10.843			-2.711
233601.000			10.843			-2.711
233700.000			10.844			-2.711
233800.000			10.844			-2.711
233901.000			10.843			-2.711
234000.000			10.844			-2.711
234101.000			10.843			-2.711
234202.000			10.843			-2.711
234301.000			10.843			-2.711
234400.000			10.843			-2.711
234501.000			10.842			-2.711
234600.000			10.843			-2.711
234700.000			10.842			-2.711
234800.000			10.843			-2.711
234900.000			10.842			-2.710
235002.000			10.843			-2.711
235101.000			10.842			-2.711
235201.000			10.841			-2.710
235301.000			10.842			-2.710
235400.000			10.842			-2.711
235500.000			10.843			-2.711
235601.000			10.843			-2.711
235700.000			10.842			-2.711
235800.000			10.843			-2.711
235901.000			10.843			-2.711
236001.000			10.843			-2.711
236101.000			10.842			-2.711
236201.000			10.843			-2.711
236300.000			10.842			-2.710
236400.000			10.842			-2.710
236501.000			10.842			-2.711
236600.000			10.842			-2.710
236700.000			10.841			-2.710
236801.000			10.842			-2.711
236901.000			10.842			-2.710
237001.000			10.841			-2.710
237102.000			10.842			-2.711
237200.000			10.842			-2.710
237300.000			10.842			-2.710
237401.000			10.840			-2.710
237500.000			10.840			-2.710
237600.000			10.841			-2.710
237701.000			10.841			-2.710
237801.000			10.840			-2.710
237902.000			10.840			-2.710
238001.000			10.840			-2.710
238100.000			10.840			-2.710
238201.000			10.840			-2.710
238300.000			10.840			-2.710
238400.000			10.839			-2.710
238501.000			10.839			-2.710
238600.000			10.840			-2.710
238700.000			10.841			-2.710
238802.000			10.840			-2.710
238901.000			10.839			-2.710
239000.000			10.839			-2.710
239101.000			10.840			-2.710
239200.000			10.840			-2.710
239300.000			10.840			-2.710
239401.000			10.841			-2.710
239500.000			10.841			-2.710
239600.000			10.840			-2.710
239702.000			10.840			-2.710
239801.000			10.840			-2.710
239901.000			10.840			-2.710
240001.000			10.840			-2.710
240100.000			10.840			-2.710
240200.000			10.840			-2.710
240301.000			10.839			-2.710
240400.000			10.839			-2.710
240500.000			10.839			-2.710
240602.000			10.840			-2.710
240701.000			10.839			-2.710
240801.000			10.839			-2.710
240901.000			10.839			-2.710
241000.000			10.840			-2.710
241100.000			10.840			-2.710
241200.000			10.838			-2.710
241300.000			10.839			-2.710
241401.000			10.838			-2.710
241500.000			10.838			-2.710
241601.000			10.839			-2.710
241702.000			10.838			-2.710
241800.000			10.837			-2.709
241900.000			10.838			-2.710
242001.000			10.839			-2.710
242100.000			10.839			-2.710
242200.000			10.838			-2.709
242301.000			10.838			-2.710
242400.000			10.838			-2.710
242501.000			10.838			-2.709
242602.000			10.838			-2.710
242701.000			10.838			-2.709
242800.000			10.838			-2.710
242901.000			10.838			-2.709
243000.000			10.837			-2.709
243100.000			10.838			-2.709
243201.000			10.838			-2.710
243300.000			10.838			-2.709
243400.000			10.838			-2.709
243502.000			10.838			-2.709
243601.000			10.838			-2.709
243700.000			10.838			-2.710
243801.000			10.837			-2.709
243900.000			10.836			-2.709
244000.000			10.837			-2.709
244101.000			10.837			-2.709
244200.000			10.837			-2.709
244300.000			10.836			-2.709
244402.000			10.836			-2.709
244501.000			10.836			-2.709
244601.000			10.835			-2.709
244700.000			10.837			-2.709
244800.000			10.836			-2.709
244901.000			10.836			-2.709
245000.000			10.836			-2.709
245100.000			10.836			-2.709
245201.000			10.836			-2.709
245301.000			10.836			-2.709
245401.000			10.835			-2.709
245501.000			10.835			-2.709
245600.000			10.836			-2.709
245700.000			10.836			-2.709
245801.000			10.836			-2.709
245900.000			10.835			-2.709
246000.000			10.834			-2.709
246101.000			10.835			-2.709
246201.000			10.835			-2.709
246301.000			10.835			-2.709
246402.000			10.836			-2.709
246500.000			10.834			-2.709
246600.000			10.834			-2.709
246701.000			10.834			-2.709
246800.000			10.835			-2.709
246900.000			10.834			-2.708
247001.000			10.833			-2.708
247100.000			10.834			-2.708
247201.000			10.834			-2.708
247302.000			10.835			-2.709
247400.000			10.834			-2.709
247500.000			10.834			-2.708
247600.000			10.834			-2.709
247700.000			10.834			-2.709
247801.000			10.835			-2.709
247900.000			10.835			-2.709
248000.000			10.834			-2.709
248102.000			10.834			-2.708
248201.000			10.834			-2.709
248301.000			10.834			-2.708
248401.000			10.833			-2.708
248500.000			10.834			-2.708
248600.000			10.834			-2.708
248701.000			10.833			-2.708
248800.000			10.833			-2.708
248900.000			10.834			-2.708
249001.000			10.833			-2.708
249101.000			10.833			-2.708
249201.000			10.832			-2.708
249301.000			10.832			-2.708
249400.000			10.833			-2.708
249500.000			10.833			-2.708
249601.000			10.832			-2.708
249700.000			10.832			-2.708
249800.000			10.832			-2.708
249901.000			10.832			-2.708
250001.000			10.832			-2.708
250101.000			10.832			-2.708
250201.000			10.833			-2.708
250300.000			10.832			-2.708
250400.000			10.832			-2.708
250501.000			10.832			-2.708
250600.000			10.833			-2.708
250700.000			10.832			-2.708
250800.000			10.833			-2.708
250901.000			10.833			-2.708
251002.000			10.832			-2.708
251101.000			10.832			-2.708
251200.000			10.832			-2.708
251301.000			10.832			-2.708
251400.000			10.832			-2.708
251500.000			10.832			-2.708
251601.000			10.833			-2.708
251700.000			10.833			-2.708
251801.000			10.832			-2.708
251902.000			10.832			-2.708
252001.000			10.832			-2.708
252100.000			10.831			-2.708
252201.000			10.831			-2.708
252300.000			10.831			-2.708
252400.000			10.831			-2.708
252501.000			10.830			-2.708
252600.000			10.831			-2.708
252701.000			10.832			-2.708
252802.000			10.832			-2.708
252901.000			10.832			-2.708
253000.000			10.832			-2.708
253101.000			10.831			-2.708
253200.000			10.831			-2.708
253300.000			10.831			-2.708
253401.000			10.831			-2.708
253500.000			10.831			-2.708
253600.000			10.831			-2.708
253702.000			10.831			-2.708
253801.000			10.830			-2.708
253900.000			10.829			-2.707
254000.000			10.830			-2.708
254100.000			10.830			-2.708
254201.000			10.830			-2.708
254300.000			10.829			-2.707
254400.000			10.829			-2.707
254501.000			10.829			-2.707
254601.000			10.830			-2.707
254701.000			10.830			-2.708
254801.000			10.830			-2.707
254900.000			10.829			-2.707
255000.000			10.830			-2.708
255101.000			10.830			-2.707
255200.000			10.828			-2.707
255300.000			10.829			-2.707
255401.000			10.828			-2.707
255501.000			10.829			-2.707
255601.000			10.829			-2.707
255702.000			10.830			-2.707
255800.000			10.829			-2.707
255900.000			10.829			-2.707
256001.000			10.829			-2.707
256100.000			10.828			-2.707
256200.000			10.829			-2.707
256301.000			10.829			-2.707
256400.000			10.829			-2.707
256501.000			10.827			-2.707
256602.000			10.828			-2.707
256700.000			10.828			-2.707
256800.000			10.828			-2.707
256901.000			10.828			-2.707
257000.000			10.829			-2.707
257100.000			10.828			-2.707
257200.000			10.829			-2.707
257300.000			10.829			-2.707
257401.000			10.828			-2.707
257501.000			10.827			-2.707
257601.000			10.827			-2.707
257701.000			10.827			-2.707
257800.000			10.827			-2.707
257900.000			10.827			-2.707
258001.000			10.827			-2.707
258100.000			10.828			-2.707
258200.000			10.828			-2.707
258301.000			10.826			-2.707
258401.000			10.827			-2.707
258501.000			10.828			-2.707
258602.000			10.827			-2.707
258700.000			10.827			-2.707
258800.000			10.827			-2.707
258901.000			10.827			-2.707
259000.000			10.827			-2.707
259100.000			10.827			-2.707
259201.000			10.827			-2.707
259300.000			10.827			-2.707
259401.000			10.828			-2.707
259502.000			10.827			-2.707
259600.000			10.827			-2.707
259700.000			10.826			-2.707
259801.000			10.826			-2.707
259900.000			10.827			-2.707
260000.000			10.827			-2.707
260101.000			10.826			-2.707
260200.000			10.827			-2.707
260302.000			10.826			-2.707
260401.000			10.827			-2.707
260501.000			10.827			-2.707
260601.000			10.826			-2.706
260700.000			10.825			-2.706
260800.000			10.826			-2.706
260901.000			10.826			-2.706
261000.000			10.826			-2.706
261100.000			10.826			-2.706
261202.000			10.826			-2.706
261301.000			10.825			-2.706
261401.000			10.825			-2.706
261501.000			10.826			-2.706
261600.000			10.825			-2.706
261700.000			10.826			-2.706
261801.000			10.826			-2.706
261900.000			10.825			-2.706
262000.000			10.825			-2.706
262101.000			10.824			-2.706
262201.000			10.825			-2.706
262301.000			10.825			-2.706
262401.000			10.825			-2.706
262500.000			10.825			-2.706
262600.000			10.824			-2.706
262701.000			10.825			-2.706
262800.000			10.824			-2.706
262900.000			10.823			-2.706
263001.000			10.823			-2.706
263101.000			10.824			-2.706
263201.000			10.824			-2.706
263301.000			10.824			-2.706
263400.000			10.824			-2.706
263500.000			10.823			-2.706
263600.000			10.823			-2.706
263700.000			10.824			-2.706
263801.000			10.823			-2.706
263900.000			10.823			-2.706
264001.000			10.824			-2.706
264102.000			10.823			-2.706
264201.000			10.822			-2.706
264300.000			10.823			-2.706
264401.000			10.824			-2.706
264500.000			10.824			-2.706
264600.000			10.823			-2.706
264701.000			10.823			-2.706
264800.000			10.823			-2.706
264901.000			10.823			-2.706
265002.000			10.823			-2.706
265101.000			10.822			-2.706
265200.000			10.823			-2.706
265301.000			10.823			-2.706
265400.000			10.823			-2.706
265500.000			10.823			-2.706
265601.000			10.823			-2.706
265700.000			10.822			-2.706
265800.000			10.823			-2.706
265902.000			10.823			-2.706
266001.000			10.822			-2.705
266100.000			10.822			-2.705
266201.000			10.822			-2.706
266300.000			10.822			-2.705
266400.000			10.822			-2.706
266501.000			10.822			-2.706
266600.000			10.821			-2.705
266700.000			10.822			-2.705
266802.000			10.821			-2.705
266901.000			10.821			-2.705
267001.000			10.822			-2.706
267100.000			10.822			-2.706
267200.000			10.821			-2.705
267301.000			10.820			-2.705
267400.000			10.821			-2.705
267500.000			10.820			-2.705
267601.000			10.821			-2.705
267701.000			10.821			-2.705
267801.000			10.821			-2.705
267901.000			10.820			-2.705
268000.000			10.820			-2.705
268100.000			10.820			-2.705
268201.000			10.820			-2.705
268300.000			10.820			-2.705
268400.000			10.820			-2.705
268501.000			10.820			-2.705
268601.000			10.820			-2.705
268701.000			10.819			-2.705
268802.000			10.820			-2.705
268900.000			10.820			-2.705
269000.000			10.820			-2.705
269101.000			10.820			-2.705
269200.000			10.820			-2.705
269300.000			10.820			-2.705
269401.000			10.821			-2.705
269500.000			10.820			-2.705
269601.000			10.819			-2.705
269702.000			10.820			-2.705
269800.000			10.821			-2.705
269900.000			10.821			-2.705
270000.000			10.820			-2.705
270100.000			10.820			-2.705
270201.000			10.818			-2.705
270300.000			10.819			-2.705
270400.000			10.819			-2.705
270502.000			10.820			-2.705
270601.000			10.820			-2.705
270701.000			10.819			-2.705
270801.000			10.819			-2.705
270900.000			10.819			-2.705
271000.000			10.819			-2.705
271101.000			10.819			-2.705
271200.000			10.818			-2.705
271300.000			10.819			-2.705
271402.000			10.819			-2.705
271501.000			10.819			-2.705
271601.000			10.819			-2.705
271701.000			10.819			-2.705
271800.000			10.818			-2.704
271900.000			10.817			-2.704
272001.000			10.817			-2.704
272100.000			10.817			-2.704
272200.000			10.817			-2.704
272301.000			10.818			-2.704
272401.000			10.818			-2.705
272501.000			10.819			-2.705
272601.000			10.819			-2.705
272700.000			10.819			-2.705
272800.000			10.818			-2.704
272901.000			10.818			-2.704
273000.000			10.818			-2.705
273100.000			10.818			-2.704
273200.000			10.818			-2.705
273301.000			10.819			-2.705
273402.000			10.819			-2.705
273501.000			10.818			-2.705
273600.000			10.818			-2.705
273701.000			10.819			-2.705
273800.000			10.817			-2.704
273900.000			10.817			-2.704
274001.000			10.817			-2.704
274100.000			10.818			-2.704
274200.000			10.817			-2.704
274302.000			10.817			-2.704
274401.000			10.817			-2.704
274500.000			10.817			-2.704
274601.000			10.817			-2.704
274700.000			10.817			-2.704
274800.000			10.817			-2.704
274901.000			10.816			-2.704
275000.000			10.816			-2.704
275100.000			10.817			-2.704
275202.000			10.817			-2.704
275301.000			10.816			-2.704
275400.000			10.816			-2.704
275501.000			10.817			-2.704
275600.000			10.817			-2.704
275700.000			10.817			-2.704
275801.000			10.816			-2.704
275900.000			10.816			-2.704
276000.000			10.815			-2.704
276102.000			10.816			-2.704
276201.000			10.816			-2.704
276302.000			10.816			-2.704
276400.000			10.816			-2.704
276500.000			10.817			-2.704
276601.000			10.816			-2.704
276700.000			10.817			-2.704
276800.000			10.817			-2.704
276901.000			10.816			-2.704
277000.000			10.815			-2.704
277101.000			10.815			-2.704
277202.000			10.816			-2.704
277300.000			10.815			-2.704
277400.000			10.815			-2.704
277501.000			10.814			-2.704
277600.000			10.814			-2.704
277700.000			10.814			-2.703
277801.000			10.814			-2.704
277900.000			10.814			-2.704
278001.000			10.816			-2.704
278102.000			10.816			-2.704
278201.000			10.815			-2.704
278300.000			10.814			-2.704
278401.000			10.814			-2.704
278500.000			10.814			-2.704
278600.000			10.814			-2.704
278701.000			10.815			-2.704
278800.000			10.815			-2.704
278900.000			10.814			-2.704
279002.000			10.814			-2.703
279101.000			10.813			-2.703
279200.000			10.814			-2.704
279301.000			10.815			-2.704
279400.000			10.814			-2.703
279500.000			10.813			-2.703
279600.000			10.814			-2.704
279700.000			10.813			-2.703
279801.000			10.813			-2.703
279901.000			10.814			-2.703
280001.000			10.814			-2.704
280101.000			10.815			-2.704
280200.000			10.814			-2.703
280300.000			10.814			-2.704
280401.000			10.814			-2.703
280500.000			10.813			-2.703
280600.000			10.814			-2.703
280701.000			10.813			-2.703
280801.000			10.813			-2.703
280901.000			10.813			-2.703
281001.000			10.813			-2.703
281100.000			10.813			-2.703
281200.000			10.812			-2.703
281301.000			10.813			-2.703
281400.000			10.813			-2.703
281500.000			10.813			-2.703
281601.000			10.813			-2.703
281701.000			10.813			-2.703
281801.000			10.812			-2.703
281901.000			10.812			-2.703
282000.000			10.813			-2.703
282100.000			10.812			-2.703
282201.000			10.812			-2.703
282300.000			10.812			-2.703
282400.000			10.813			-2.703
282501.000			10.812			-2.703
282601.000			10.812			-2.703
282702.000			10.812			-2.703
282800.000			10.812			-2.703
282900.000			10.813			-2.703
283001.000			10.812			-2.703
283100.000			10.812			-2.703
283200.000			10.812			-2.703
283301.000			10.812			-2.703
283400.000			10.812			-2.703
283501.000			10.811			-2.703
283602.000			10.812			-2.703
283700.000			10.812			-2.703
283800.000			10.811			-2.703
283901.000			10.811			-2.703
284000.000			10.812			-2.703
284100.000			10.811			-2.703
284201.000			10.812			-2.703
284300.000			10.813			-2.703
284401.000			10.811			-2.703
284502.000			10.810			-2.702
284600.000			10.811			-2.703
284700.000			10.811			-2.703
284801.000			10.811			-2.703
284900.000			10.812			-2.703
285000.000			10.811			-2.703
285101.000			10.811			-2.703
285200.000			10.811			-2.703
285301.000			10.811			-2.703
285402.000			10.811			-2.703
285501.000			10.811			-2.703
285600.000			10.810			-2.703
285701.000			10.810			-2.702
285800.000			10.810			-2.702
285900.000			10.811			-2.703
286000.000			10.811			-2.703
286100.000			10.810			-2.702
286202.000			10.811			-2.703
286301.000			10.811			-2.703
286401.000			10.811			-2.703
286501.000			10.810			-2.703
286600.000			10.810			-2.703
286700.000			10.811			-2.703
286801.000			10.810			-2.703
286900.000			10.810			-2.702
287000.000			10.810			-2.703
287101.000			10.810			-2.702
287201.000			10.809			-2.702
287301.000			10.810			-2.702
287401.000			10.809			-2.702
287500.000			10.809			-2.702
287600.000			10.810			-2.702
287701.000			10.810			-2.702
287800.000			10.810			-2.702
287900.000			10.810			-2.703
288001.000			10.810			-2.703
288101.000			10.809			-2.702
288201.000			10.809			-2.702
288302.000			10.808			-2.702
288400.000			10.809			-2.702
288500.000			10.809			-2.702
288601.000			10.809			-2.702
288700.000			10.809			-2.702
288800.000			10.809			-2.702
288901.000			10.808			-2.702
289000.000			10.808			-2.702
289102.000			10.808			-2.702
289201.000			10.808			-2.702
289301.000			10.808			-2.702
289401.000			10.807			-2.702
289500.000			10.808			-2.702
289600.000			10.809			-2.702
289701.000			10.809			-2.702
289800.000			10.808			-2.702
289900.000			10.808			-2.702
290001.000			10.808			-2.702
290101.000			10.807			-2.702
290201.000			10.807			-2.702
290301.000			10.807			-2.702
290400.000			10.809			-2.702
290500.000			10.807			-2.702
290601.000			10.807			-2.702
290700.000			10.807			-2.702
290800.000			10.806			-2.702
290901.000			10.807			-2.702
291001.000			10.807			-2.702
291101.000			10.807			-2.702
291201.000			10.808			-2.702
291300.000			10.807			-2.702
291400.000			10.806			-2.701
291501.000			10.806			-2.701
291600.000			10.807			-2.702
291700.000			10.807			-2.702
291801.000			10.807			-2.702
291901.000			10.807			-2.702
292001.000			10.806			-2.702
292101.000			10.806			-2.701
292200.000			10.806			-2.701
292300.000			10.806			-2.702
292400.000			10.806			-2.701
292500.000			10.806			-2.701
292601.000			10.806			-2.702
292700.000			10.806			-2.702
292801.000			10.806			-2.702
292902.000			10.807			-2.702
293001.000			10.807			-2.702
293100.000			10.807			-2.702
293201.000			10.806			-2.701
293300.000			10.806			-2.701
293400.000			10.807			-2.702
293501.000			10.806			-2.702
293600.000			10.806			-2.702
293700.000			10.806			-2.702
293802.000			10.806			-2.701
293901.000			10.804			-2.701
294000.000			10.804			-2.701
294101.000			10.805			-2.701
294200.000			10.805			-2.701
294300.000			10.805			-2.701
294401.000			10.805			-2.701
294500.000			10.805			-2.701
294600.000			10.805			-2.701
294702.000			10.805			-2.701
294801.000			10.806			-2.701
294901.000			10.805			-2.701
295001.000			10.805			-2.701
295100.000			10.805			-2.701
295200.000			10.805			-2.701
295301.000			10.804			-2.701
295400.000			10.805			-2.701
295500.000			10.805			-2.701
295600.000			10.805			-2.701
295701.000			10.804			-2.701
295802.000			10.804			-2.701
295900.000			10.805			-2.701
296000.000			10.803			-2.701
296101.000			10.803			-2.701
296200.000			10.802			-2.701
296300.000			10.804			-2.701
296401.000			10.804			-2.701
296500.000			10.804			-2.701
296601.000			10.803			-2.701
296702.000			10.803			-2.701
296801.000			10.803			-2.701
296900.000			10.803			-2.701
297001.000			10.804			-2.701
297100.000			10.805			-2.701
297200.000			10.804			-2.701
297301.000			10.804			-2.701
297400.000			10.804			-2.701
297500.000			10.803			-2.701
297602.000			10.803			-2.701
297701.000			10.804			-2.701
297800.000			10.804			-2.701
297901.000			10.803			-2.701
298000.000			10.803			-2.701
298100.000			10.802			-2.701
298201.000			10.803			-2.701
298300.000			10.803			-2.701
298400.000			10.802			-2.701
298502.000			10.802			-2.701
298601.000			10.802			-2.701
298702.000			10.802			-2.701
298800.000			10.802			-2.701
298900.000			10.803			-2.701
299001.000			10.803			-2.701
299100.000			10.803			-2.701
299200.000			10.801			-2.700
299301.000			10.802			-2.701
299401.000			10.803			-2.701
299501.000			10.804			-2.701
299602.000			10.803			-2.701
299700.000			10.802			-2.700
299800.000			10.801			-2.700
299901.000			10.802			-2.700
