# Acquired on 20/12/2023 11:54:06 
# SPIDER: Creep_-3mm_0771453C
# CREEP MEASUREMENT

# time [ms]		force [N]		stiffness [N/mm]
0.000			9.463			-3.154
101.000			12.300			-4.100
200.000			12.632			-4.211
300.000			12.636			-4.212
402.000			12.602			-4.201
501.000			12.577			-4.192
600.000			12.555			-4.185
701.000			12.538			-4.179
800.000			12.523			-4.174
900.000			12.496			-4.165
1000.000			12.485			-4.162
1101.000			12.474			-4.158
1202.000			12.464			-4.155
1300.000			12.454			-4.151
1400.000			12.445			-4.148
1501.000			12.437			-4.146
1600.000			12.422			-4.141
1700.000			12.416			-4.139
1801.000			12.410			-4.137
1901.000			12.404			-4.135
2001.000			12.398			-4.133
2101.000			12.393			-4.131
2200.000			12.388			-4.129
2300.000			12.376			-4.125
2401.000			12.371			-4.124
2500.000			12.368			-4.123
2601.000			12.364			-4.121
2702.000			12.359			-4.120
2800.000			12.354			-4.118
2900.000			12.351			-4.117
3001.000			12.346			-4.115
3100.000			12.339			-4.113
3200.000			12.336			-4.112
3301.000			12.332			-4.111
3401.000			12.328			-4.109
3501.000			12.325			-4.108
3601.000			12.321			-4.107
3700.000			12.319			-4.106
3800.000			12.312			-4.104
3901.000			12.309			-4.103
4000.000			12.305			-4.102
4100.000			12.302			-4.101
4202.000			12.300			-4.100
4300.000			12.299			-4.100
4401.000			12.297			-4.099
4500.000			12.290			-4.097
4600.000			12.287			-4.096
4701.000			12.285			-4.095
4800.000			12.282			-4.094
4901.000			12.280			-4.093
5002.000			12.277			-4.093
5100.000			12.275			-4.092
5200.000			12.273			-4.091
5301.000			12.270			-4.090
5400.000			12.268			-4.089
5500.000			12.264			-4.088
5601.000			12.263			-4.088
5701.000			12.260			-4.087
5801.000			12.257			-4.086
5901.000			12.256			-4.085
6000.000			12.253			-4.084
6100.000			12.251			-4.084
6201.000			12.248			-4.083
6300.000			12.246			-4.082
6401.000			12.245			-4.082
6502.000			12.244			-4.081
6600.000			12.242			-4.081
6700.000			12.239			-4.080
6801.000			12.237			-4.079
6900.000			12.235			-4.078
7000.000			12.234			-4.078
7101.000			12.231			-4.077
7201.000			12.230			-4.077
7302.000			12.228			-4.076
7400.000			12.226			-4.075
7500.000			12.223			-4.074
7601.000			12.222			-4.074
7700.000			12.221			-4.074
7800.000			12.220			-4.073
7902.000			12.217			-4.072
8001.000			12.217			-4.072
8100.000			12.214			-4.071
8201.000			12.211			-4.070
8300.000			12.210			-4.070
8400.000			12.209			-4.070
8501.000			12.207			-4.069
8600.000			12.206			-4.069
8701.000			12.204			-4.068
8802.000			12.202			-4.067
8900.000			12.200			-4.067
9000.000			12.199			-4.066
9101.000			12.197			-4.066
9200.000			12.196			-4.065
9300.000			12.195			-4.065
9401.000			12.194			-4.065
9501.000			12.194			-4.065
9601.000			12.192			-4.064
9701.000			12.189			-4.063
9800.000			12.188			-4.063
9900.000			12.187			-4.062
10001.000			12.185			-4.062
10100.000			12.183			-4.061
10200.000			12.183			-4.061
10302.000			12.183			-4.061
10401.000			12.180			-4.060
10500.000			12.179			-4.060
10600.000			12.178			-4.059
10700.000			12.177			-4.059
10801.000			12.176			-4.059
10900.000			12.175			-4.058
11000.000			12.174			-4.058
11102.000			12.172			-4.057
11200.000			12.170			-4.057
11300.000			12.169			-4.056
11401.000			12.168			-4.056
11500.000			12.167			-4.056
11600.000			12.167			-4.056
11701.000			12.166			-4.055
11801.000			12.165			-4.055
11901.000			12.162			-4.054
12001.000			12.161			-4.054
12100.000			12.161			-4.054
12200.000			12.160			-4.053
12301.000			12.159			-4.053
12400.000			12.158			-4.053
12500.000			12.158			-4.053
12602.000			12.156			-4.052
12701.000			12.154			-4.051
12800.000			12.154			-4.051
12901.000			12.154			-4.051
13000.000			12.154			-4.051
13100.000			12.152			-4.051
13201.000			12.150			-4.050
13300.000			12.149			-4.050
13401.000			12.147			-4.049
13502.000			12.146			-4.049
13600.000			12.146			-4.049
13700.000			12.145			-4.048
13800.000			12.144			-4.048
13900.000			12.143			-4.048
14001.000			12.142			-4.047
14101.000			12.141			-4.047
14201.000			12.139			-4.046
14301.000			12.140			-4.047
14400.000			12.139			-4.046
14500.000			12.137			-4.046
14601.000			12.137			-4.046
14700.000			12.135			-4.045
14800.000			12.135			-4.045
14902.000			12.134			-4.045
15001.000			12.133			-4.044
15101.000			12.132			-4.044
15201.000			12.131			-4.044
15300.000			12.130			-4.043
15400.000			12.130			-4.043
15501.000			12.129			-4.043
15600.000			12.127			-4.042
15701.000			12.127			-4.042
15802.000			12.126			-4.042
15901.000			12.125			-4.042
16000.000			12.124			-4.041
16101.000			12.124			-4.041
16200.000			12.123			-4.041
16300.000			12.121			-4.040
16401.000			12.120			-4.040
16501.000			12.119			-4.040
16601.000			12.119			-4.040
16701.000			12.117			-4.039
16800.000			12.117			-4.039
16900.000			12.118			-4.039
17000.000			12.116			-4.039
17100.000			12.116			-4.039
17201.000			12.114			-4.038
17301.000			12.114			-4.038
17401.000			12.114			-4.038
17501.000			12.114			-4.038
17600.000			12.112			-4.037
17700.000			12.112			-4.037
17801.000			12.110			-4.037
17900.000			12.110			-4.037
18000.000			12.109			-4.036
18102.000			12.109			-4.036
18201.000			12.108			-4.036
18300.000			12.108			-4.036
18401.000			12.106			-4.035
18500.000			12.106			-4.035
18600.000			12.105			-4.035
18701.000			12.104			-4.035
18800.000			12.104			-4.035
18901.000			12.104			-4.035
19002.000			12.103			-4.034
19100.000			12.101			-4.034
19200.000			12.100			-4.033
19301.000			12.100			-4.033
19400.000			12.100			-4.033
19500.000			12.098			-4.033
19602.000			12.098			-4.033
19701.000			12.098			-4.033
19800.000			12.098			-4.033
19901.000			12.096			-4.032
20000.000			12.095			-4.032
20100.000			12.094			-4.031
20200.000			12.093			-4.031
20300.000			12.093			-4.031
20402.000			12.094			-4.031
20501.000			12.093			-4.031
20600.000			12.092			-4.031
20701.000			12.091			-4.030
20800.000			12.089			-4.030
20900.000			12.089			-4.030
21001.000			12.089			-4.030
21100.000			12.088			-4.029
21201.000			12.087			-4.029
21302.000			12.085			-4.028
21400.000			12.087			-4.029
21500.000			12.085			-4.028
21601.000			12.085			-4.028
21700.000			12.085			-4.028
21800.000			12.084			-4.028
21901.000			12.083			-4.028
22001.000			12.082			-4.027
22101.000			12.082			-4.027
22201.000			12.081			-4.027
22300.000			12.080			-4.027
22400.000			12.079			-4.026
22501.000			12.079			-4.026
22600.000			12.080			-4.027
22701.000			12.079			-4.026
22802.000			12.079			-4.026
22900.000			12.077			-4.026
23000.000			12.075			-4.025
23101.000			12.075			-4.025
23200.000			12.075			-4.025
23300.000			12.074			-4.025
23400.000			12.073			-4.024
23501.000			12.074			-4.025
23602.000			12.073			-4.024
23700.000			12.073			-4.024
23800.000			12.072			-4.024
23901.000			12.071			-4.024
24000.000			12.071			-4.024
24100.000			12.071			-4.024
24201.000			12.070			-4.023
24301.000			12.069			-4.023
24401.000			12.069			-4.023
24501.000			12.069			-4.023
24600.000			12.068			-4.023
24700.000			12.067			-4.022
24801.000			12.067			-4.022
24900.000			12.066			-4.022
25000.000			12.066			-4.022
25102.000			12.066			-4.022
25201.000			12.065			-4.022
25300.000			12.065			-4.022
25401.000			12.064			-4.021
25500.000			12.063			-4.021
25600.000			12.062			-4.021
25701.000			12.061			-4.020
25801.000			12.060			-4.020
25901.000			12.061			-4.020
26001.000			12.060			-4.020
26100.000			12.059			-4.020
26200.000			12.059			-4.020
26301.000			12.059			-4.020
26400.000			12.059			-4.020
26500.000			12.058			-4.019
26602.000			12.058			-4.019
26701.000			12.057			-4.019
26801.000			12.056			-4.019
26900.000			12.055			-4.018
27000.000			12.056			-4.019
27101.000			12.056			-4.019
27200.000			12.055			-4.018
27300.000			12.055			-4.018
27402.000			12.054			-4.018
27501.000			12.052			-4.017
27600.000			12.052			-4.017
27701.000			12.053			-4.018
27800.000			12.053			-4.018
27900.000			12.051			-4.017
28001.000			12.051			-4.017
28100.000			12.051			-4.017
28201.000			12.051			-4.017
28302.000			12.050			-4.017
28400.000			12.049			-4.016
28500.000			12.049			-4.016
28601.000			12.049			-4.016
28700.000			12.049			-4.016
28800.000			12.047			-4.016
28902.000			12.046			-4.015
29001.000			12.047			-4.016
29100.000			12.046			-4.015
29201.000			12.046			-4.015
29300.000			12.045			-4.015
29400.000			12.044			-4.015
29501.000			12.043			-4.014
29600.000			12.043			-4.014
29702.000			12.043			-4.014
29801.000			12.043			-4.014
29900.000			12.044			-4.015
30001.000			12.043			-4.014
30100.000			12.041			-4.014
30200.000			12.042			-4.014
30301.000			12.040			-4.013
30400.000			12.039			-4.013
30501.000			12.038			-4.013
30602.000			12.039			-4.013
30700.000			12.040			-4.013
30800.000			12.040			-4.013
30901.000			12.039			-4.013
31000.000			12.038			-4.013
31100.000			12.037			-4.012
31201.000			12.037			-4.012
31301.000			12.036			-4.012
31401.000			12.035			-4.012
31501.000			12.035			-4.012
31600.000			12.035			-4.012
31700.000			12.034			-4.011
31801.000			12.034			-4.011
31900.000			12.034			-4.011
32001.000			12.034			-4.011
32102.000			12.035			-4.012
32200.000			12.034			-4.011
32300.000			12.034			-4.011
32401.000			12.032			-4.011
32500.000			12.031			-4.010
32600.000			12.031			-4.010
32701.000			12.032			-4.011
32801.000			12.031			-4.010
32902.000			12.031			-4.010
33000.000			12.030			-4.010
33100.000			12.029			-4.010
33201.000			12.030			-4.010
33300.000			12.030			-4.010
33400.000			12.029			-4.010
33501.000			12.029			-4.010
33601.000			12.029			-4.010
33701.000			12.029			-4.010
33801.000			12.028			-4.009
33900.000			12.026			-4.009
34000.000			12.026			-4.009
34101.000			12.025			-4.008
34200.000			12.025			-4.008
34301.000			12.024			-4.008
34402.000			12.024			-4.008
34500.000			12.025			-4.008
34600.000			12.025			-4.008
34701.000			12.023			-4.008
34800.000			12.023			-4.008
34900.000			12.023			-4.008
35001.000			12.022			-4.007
35101.000			12.022			-4.007
35201.000			12.021			-4.007
35301.000			12.021			-4.007
35400.000			12.021			-4.007
35500.000			12.021			-4.007
35601.000			12.020			-4.007
35700.000			12.020			-4.007
35801.000			12.020			-4.007
35902.000			12.019			-4.006
36000.000			12.019			-4.006
36100.000			12.019			-4.006
36200.000			12.018			-4.006
36300.000			12.018			-4.006
36401.000			12.018			-4.006
36500.000			12.017			-4.006
36601.000			12.017			-4.006
36702.000			12.017			-4.006
36800.000			12.016			-4.005
36900.000			12.015			-4.005
37001.000			12.015			-4.005
37100.000			12.016			-4.005
37200.000			12.015			-4.005
37301.000			12.015			-4.005
37401.000			12.014			-4.005
37501.000			12.013			-4.004
37601.000			12.014			-4.005
37700.000			12.014			-4.005
37800.000			12.012			-4.004
37901.000			12.011			-4.004
38000.000			12.012			-4.004
38100.000			12.012			-4.004
38202.000			12.012			-4.004
38301.000			12.011			-4.004
38400.000			12.011			-4.004
38501.000			12.010			-4.003
38600.000			12.010			-4.003
38700.000			12.009			-4.003
38801.000			12.009			-4.003
38901.000			12.009			-4.003
39001.000			12.009			-4.003
39101.000			12.008			-4.003
39200.000			12.007			-4.002
39300.000			12.007			-4.002
39400.000			12.007			-4.002
39500.000			12.008			-4.003
39601.000			12.006			-4.002
39701.000			12.006			-4.002
39801.000			12.006			-4.002
39901.000			12.005			-4.002
40000.000			12.005			-4.002
40100.000			12.005			-4.002
40201.000			12.005			-4.002
40300.000			12.004			-4.001
40400.000			12.004			-4.001
40502.000			12.002			-4.001
40601.000			12.002			-4.001
40700.000			12.003			-4.001
40801.000			12.003			-4.001
40900.000			12.002			-4.001
41000.000			12.002			-4.001
41101.000			12.002			-4.001
41201.000			12.002			-4.001
41301.000			12.000			-4.000
41401.000			12.001			-4.000
41500.000			12.001			-4.000
41600.000			12.000			-4.000
41701.000			12.000			-4.000
41800.000			12.000			-4.000
41900.000			12.000			-4.000
42002.000			11.998			-3.999
42101.000			11.999			-4.000
42200.000			11.999			-4.000
42301.000			11.999			-4.000
42400.000			11.998			-3.999
42500.000			11.996			-3.999
42600.000			11.996			-3.999
42700.000			11.998			-3.999
42802.000			11.997			-3.999
42901.000			11.996			-3.999
43000.000			11.995			-3.998
43101.000			11.995			-3.998
43200.000			11.995			-3.998
43300.000			11.995			-3.998
43401.000			11.995			-3.998
43500.000			11.994			-3.998
43601.000			11.994			-3.998
43702.000			11.994			-3.998
43800.000			11.994			-3.998
43900.000			11.993			-3.998
44001.000			11.993			-3.998
44100.000			11.993			-3.998
44200.000			11.993			-3.998
44301.000			11.993			-3.998
44401.000			11.992			-3.997
44501.000			11.992			-3.997
44601.000			11.992			-3.997
44700.000			11.992			-3.997
44800.000			11.990			-3.997
44901.000			11.990			-3.997
45000.000			11.990			-3.997
45100.000			11.990			-3.997
45202.000			11.989			-3.996
45301.000			11.988			-3.996
45401.000			11.989			-3.996
45501.000			11.988			-3.996
45600.000			11.987			-3.996
45700.000			11.988			-3.996
45800.000			11.987			-3.996
45900.000			11.987			-3.996
46001.000			11.987			-3.996
46101.000			11.986			-3.995
46201.000			11.987			-3.996
46301.000			11.986			-3.995
46400.000			11.986			-3.995
46500.000			11.985			-3.995
46601.000			11.985			-3.995
46700.000			11.985			-3.995
46800.000			11.986			-3.995
46902.000			11.985			-3.995
47001.000			11.984			-3.995
47100.000			11.984			-3.995
47201.000			11.983			-3.994
47300.000			11.983			-3.994
47400.000			11.982			-3.994
47501.000			11.982			-3.994
47600.000			11.982			-3.994
47700.000			11.983			-3.994
47802.000			11.982			-3.994
47901.000			11.981			-3.994
48000.000			11.981			-3.994
48101.000			11.981			-3.994
48200.000			11.981			-3.994
48300.000			11.982			-3.994
48401.000			11.981			-3.994
48500.000			11.979			-3.993
48601.000			11.980			-3.993
48702.000			11.979			-3.993
48800.000			11.979			-3.993
48900.000			11.979			-3.993
49000.000			11.979			-3.993
49100.000			11.979			-3.993
49201.000			11.979			-3.993
49300.000			11.978			-3.993
49401.000			11.978			-3.993
49502.000			11.978			-3.993
49600.000			11.978			-3.993
49700.000			11.977			-3.992
49801.000			11.977			-3.992
49900.000			11.976			-3.992
50000.000			11.977			-3.992
50101.000			11.976			-3.992
50201.000			11.975			-3.992
50301.000			11.976			-3.992
50402.000			11.976			-3.992
50500.000			11.975			-3.992
50600.000			11.976			-3.992
50701.000			11.974			-3.991
50800.000			11.973			-3.991
50900.000			11.973			-3.991
51001.000			11.973			-3.991
51101.000			11.973			-3.991
51201.000			11.972			-3.991
51301.000			11.973			-3.991
51400.000			11.972			-3.991
51500.000			11.973			-3.991
51601.000			11.972			-3.991
51700.000			11.972			-3.991
51801.000			11.971			-3.990
51902.000			11.971			-3.990
52001.000			11.972			-3.991
52100.000			11.971			-3.990
52200.000			11.969			-3.990
52300.000			11.970			-3.990
52401.000			11.970			-3.990
52500.000			11.970			-3.990
52601.000			11.969			-3.990
52702.000			11.969			-3.990
52801.000			11.969			-3.990
52900.000			11.969			-3.990
53001.000			11.969			-3.990
53100.000			11.969			-3.990
53200.000			11.968			-3.989
53301.000			11.967			-3.989
53400.000			11.966			-3.989
53501.000			11.966			-3.989
53602.000			11.967			-3.989
53700.000			11.967			-3.989
53800.000			11.966			-3.989
53901.000			11.966			-3.989
54000.000			11.966			-3.989
54100.000			11.966			-3.989
54201.000			11.965			-3.988
54301.000			11.965			-3.988
54401.000			11.964			-3.988
54501.000			11.964			-3.988
54600.000			11.964			-3.988
54700.000			11.964			-3.988
54801.000			11.965			-3.988
54900.000			11.965			-3.988
55000.000			11.964			-3.988
55102.000			11.964			-3.988
55201.000			11.964			-3.988
55300.000			11.963			-3.988
55400.000			11.963			-3.988
55500.000			11.962			-3.987
55601.000			11.961			-3.987
55700.000			11.961			-3.987
55800.000			11.962			-3.987
55902.000			11.961			-3.987
56001.000			11.959			-3.986
56100.000			11.959			-3.986
56201.000			11.961			-3.987
56300.000			11.961			-3.987
56400.000			11.960			-3.987
56501.000			11.960			-3.987
56600.000			11.960			-3.987
56701.000			11.959			-3.986
56802.000			11.959			-3.986
56900.000			11.959			-3.986
57000.000			11.959			-3.986
57101.000			11.959			-3.986
57200.000			11.958			-3.986
57300.000			11.957			-3.986
57401.000			11.957			-3.986
57501.000			11.958			-3.986
57601.000			11.957			-3.986
57702.000			11.956			-3.985
57800.000			11.957			-3.986
57900.000			11.957			-3.986
58001.000			11.956			-3.985
58100.000			11.956			-3.985
58200.000			11.956			-3.985
58301.000			11.956			-3.985
58401.000			11.955			-3.985
58502.000			11.955			-3.985
58600.000			11.955			-3.985
58700.000			11.955			-3.985
58801.000			11.954			-3.985
58900.000			11.954			-3.985
59000.000			11.954			-3.985
59101.000			11.954			-3.985
59201.000			11.954			-3.985
59301.000			11.953			-3.984
59401.000			11.954			-3.985
59500.000			11.953			-3.984
59600.000			11.953			-3.984
59701.000			11.953			-3.984
59800.000			11.952			-3.984
59900.000			11.952			-3.984
60002.000			11.952			-3.984
60101.000			11.953			-3.984
60200.000			11.952			-3.984
60301.000			11.951			-3.984
60400.000			11.951			-3.984
60500.000			11.951			-3.984
60601.000			11.950			-3.983
60700.000			11.950			-3.983
60801.000			11.950			-3.983
60902.000			11.950			-3.983
61001.000			11.949			-3.983
61100.000			11.948			-3.983
61201.000			11.949			-3.983
61300.000			11.949			-3.983
61400.000			11.950			-3.983
61501.000			11.949			-3.983
61600.000			11.949			-3.983
61702.000			11.948			-3.983
61801.000			11.947			-3.982
61900.000			11.947			-3.982
62001.000			11.948			-3.983
62100.000			11.947			-3.982
62200.000			11.947			-3.982
62301.000			11.947			-3.982
62400.000			11.947			-3.982
62501.000			11.947			-3.982
62602.000			11.947			-3.982
62700.000			11.946			-3.982
62800.000			11.946			-3.982
62901.000			11.946			-3.982
63000.000			11.946			-3.982
63100.000			11.946			-3.982
63201.000			11.945			-3.982
63301.000			11.945			-3.982
63401.000			11.945			-3.982
63501.000			11.944			-3.981
63600.000			11.944			-3.981
63700.000			11.944			-3.981
63801.000			11.945			-3.982
63900.000			11.944			-3.981
64000.000			11.943			-3.981
64102.000			11.944			-3.981
64201.000			11.944			-3.981
64300.000			11.943			-3.981
64401.000			11.943			-3.981
64500.000			11.943			-3.981
64600.000			11.943			-3.981
64701.000			11.942			-3.981
64800.000			11.942			-3.981
64902.000			11.941			-3.980
65001.000			11.941			-3.980
65100.000			11.942			-3.981
65201.000			11.942			-3.981
65300.000			11.940			-3.980
65400.000			11.941			-3.980
65501.000			11.940			-3.980
65600.000			11.940			-3.980
65701.000			11.941			-3.980
65802.000			11.941			-3.980
65900.000			11.940			-3.980
66000.000			11.940			-3.980
66101.000			11.938			-3.979
66200.000			11.939			-3.980
66300.000			11.939			-3.980
66401.000			11.938			-3.979
66501.000			11.938			-3.979
66601.000			11.938			-3.979
66702.000			11.938			-3.979
66800.000			11.938			-3.979
66900.000			11.938			-3.979
67001.000			11.938			-3.979
67100.000			11.937			-3.979
67200.000			11.936			-3.979
67301.000			11.936			-3.979
67401.000			11.936			-3.979
67501.000			11.937			-3.979
67601.000			11.936			-3.979
67700.000			11.936			-3.979
67800.000			11.936			-3.979
67901.000			11.935			-3.978
68000.000			11.935			-3.978
68100.000			11.935			-3.978
68202.000			11.936			-3.979
68301.000			11.935			-3.978
68401.000			11.935			-3.978
68500.000			11.934			-3.978
68600.000			11.934			-3.978
68701.000			11.934			-3.978
68800.000			11.934			-3.978
68900.000			11.934			-3.978
69001.000			11.933			-3.978
69101.000			11.933			-3.978
69201.000			11.932			-3.977
69301.000			11.932			-3.977
69400.000			11.933			-3.978
69500.000			11.932			-3.977
69601.000			11.932			-3.977
69700.000			11.931			-3.977
69800.000			11.931			-3.977
69902.000			11.931			-3.977
70001.000			11.932			-3.977
70100.000			11.932			-3.977
70201.000			11.931			-3.977
70300.000			11.930			-3.977
70400.000			11.930			-3.977
70501.000			11.930			-3.977
70600.000			11.931			-3.977
70701.000			11.930			-3.977
70802.000			11.930			-3.977
70900.000			11.930			-3.977
71000.000			11.929			-3.976
71101.000			11.929			-3.976
71200.000			11.929			-3.976
71300.000			11.929			-3.976
71400.000			11.930			-3.977
71501.000			11.930			-3.977
71602.000			11.928			-3.976
71700.000			11.927			-3.976
71800.000			11.927			-3.976
71901.000			11.928			-3.976
72000.000			11.928			-3.976
72100.000			11.927			-3.976
72201.000			11.927			-3.976
72301.000			11.928			-3.976
72401.000			11.928			-3.976
72501.000			11.927			-3.976
72600.000			11.927			-3.976
72700.000			11.926			-3.975
72801.000			11.927			-3.976
72900.000			11.926			-3.975
73000.000			11.925			-3.975
73102.000			11.926			-3.975
73201.000			11.926			-3.975
73301.000			11.926			-3.975
73401.000			11.926			-3.975
73500.000			11.925			-3.975
73600.000			11.925			-3.975
73701.000			11.925			-3.975
73800.000			11.925			-3.975
73900.000			11.925			-3.975
74002.000			11.924			-3.975
74101.000			11.924			-3.975
74200.000			11.924			-3.975
74301.000			11.923			-3.974
74400.000			11.923			-3.974
74500.000			11.923			-3.974
74600.000			11.924			-3.975
74700.000			11.924			-3.975
74802.000			11.924			-3.975
74901.000			11.922			-3.974
75000.000			11.922			-3.974
75101.000			11.922			-3.974
75200.000			11.923			-3.974
75300.000			11.923			-3.974
75401.000			11.922			-3.974
75500.000			11.921			-3.974
75601.000			11.922			-3.974
75702.000			11.921			-3.974
75800.000			11.921			-3.974
75900.000			11.921			-3.974
76001.000			11.921			-3.974
76100.000			11.922			-3.974
76200.000			11.921			-3.974
76301.000			11.920			-3.973
76401.000			11.919			-3.973
76501.000			11.920			-3.973
76601.000			11.920			-3.973
76700.000			11.919			-3.973
76800.000			11.919			-3.973
76901.000			11.919			-3.973
77000.000			11.920			-3.973
77100.000			11.919			-3.973
77202.000			11.919			-3.973
77301.000			11.918			-3.973
77400.000			11.919			-3.973
77501.000			11.919			-3.973
77600.000			11.918			-3.973
77700.000			11.917			-3.972
77800.000			11.918			-3.973
77900.000			11.918			-3.973
78001.000			11.917			-3.972
78101.000			11.917			-3.972
78201.000			11.917			-3.972
78301.000			11.917			-3.972
78400.000			11.916			-3.972
78500.000			11.916			-3.972
78601.000			11.916			-3.972
78700.000			11.916			-3.972
78800.000			11.916			-3.972
78902.000			11.915			-3.972
79001.000			11.915			-3.972
79100.000			11.916			-3.972
79201.000			11.916			-3.972
79300.000			11.916			-3.972
79400.000			11.916			-3.972
79501.000			11.916			-3.972
79600.000			11.916			-3.972
79701.000			11.915			-3.972
79802.000			11.914			-3.971
79901.000			11.914			-3.971
80000.000			11.914			-3.971
80101.000			11.913			-3.971
80200.000			11.913			-3.971
80300.000			11.913			-3.971
80401.000			11.913			-3.971
80501.000			11.913			-3.971
80601.000			11.914			-3.971
80702.000			11.913			-3.971
80800.000			11.913			-3.971
80900.000			11.913			-3.971
81000.000			11.913			-3.971
81100.000			11.912			-3.971
81201.000			11.912			-3.971
81300.000			11.913			-3.971
81401.000			11.912			-3.971
81502.000			11.912			-3.971
81600.000			11.912			-3.971
81700.000			11.912			-3.971
81801.000			11.912			-3.971
81900.000			11.912			-3.971
82000.000			11.910			-3.970
82101.000			11.910			-3.970
82201.000			11.911			-3.970
82301.000			11.911			-3.970
82401.000			11.910			-3.970
82500.000			11.910			-3.970
82600.000			11.910			-3.970
82701.000			11.908			-3.969
82800.000			11.909			-3.970
82900.000			11.909			-3.970
83002.000			11.909			-3.970
83101.000			11.909			-3.970
83200.000			11.908			-3.969
83301.000			11.908			-3.969
83400.000			11.908			-3.969
83500.000			11.907			-3.969
83601.000			11.907			-3.969
83700.000			11.907			-3.969
83801.000			11.908			-3.969
83902.000			11.906			-3.969
84000.000			11.907			-3.969
84100.000			11.907			-3.969
84200.000			11.907			-3.969
84300.000			11.907			-3.969
84401.000			11.907			-3.969
84500.000			11.907			-3.969
84601.000			11.906			-3.969
84702.000			11.907			-3.969
84800.000			11.907			-3.969
84900.000			11.907			-3.969
85001.000			11.906			-3.969
85100.000			11.906			-3.969
85200.000			11.905			-3.968
85301.000			11.906			-3.969
85401.000			11.905			-3.968
85501.000			11.905			-3.968
85602.000			11.904			-3.968
85700.000			11.905			-3.968
85800.000			11.905			-3.968
85901.000			11.905			-3.968
86000.000			11.905			-3.968
86100.000			11.905			-3.968
86201.000			11.904			-3.968
86301.000			11.904			-3.968
86401.000			11.903			-3.968
86501.000			11.903			-3.968
86600.000			11.903			-3.968
86700.000			11.903			-3.968
86801.000			11.903			-3.968
86900.000			11.903			-3.968
87000.000			11.903			-3.968
87102.000			11.903			-3.968
87201.000			11.903			-3.968
87300.000			11.903			-3.968
87400.000			11.903			-3.968
87500.000			11.902			-3.967
87601.000			11.901			-3.967
87700.000			11.903			-3.968
87800.000			11.903			-3.968
87902.000			11.901			-3.967
88001.000			11.901			-3.967
88100.000			11.901			-3.967
88201.000			11.901			-3.967
88300.000			11.901			-3.967
88400.000			11.901			-3.967
88501.000			11.901			-3.967
88600.000			11.900			-3.967
88701.000			11.901			-3.967
88802.000			11.900			-3.967
88900.000			11.900			-3.967
89000.000			11.901			-3.967
89101.000			11.901			-3.967
89200.000			11.901			-3.967
89300.000			11.900			-3.967
89401.000			11.900			-3.967
89501.000			11.901			-3.967
89601.000			11.899			-3.966
89701.000			11.899			-3.966
89800.000			11.898			-3.966
89900.000			11.899			-3.966
90001.000			11.898			-3.966
90100.000			11.899			-3.966
90200.000			11.898			-3.966
90302.000			11.898			-3.966
90401.000			11.897			-3.966
90502.000			11.897			-3.966
90600.000			11.898			-3.966
90700.000			11.898			-3.966
90801.000			11.897			-3.966
90900.000			11.897			-3.966
91000.000			11.896			-3.965
91101.000			11.896			-3.965
91201.000			11.897			-3.966
91301.000			11.897			-3.966
91401.000			11.895			-3.965
91500.000			11.896			-3.965
91600.000			11.897			-3.966
91701.000			11.896			-3.965
91800.000			11.895			-3.965
91900.000			11.895			-3.965
92002.000			11.895			-3.965
92101.000			11.895			-3.965
92201.000			11.895			-3.965
92301.000			11.895			-3.965
92400.000			11.895			-3.965
92500.000			11.895			-3.965
92601.000			11.894			-3.965
92700.000			11.893			-3.964
92800.000			11.893			-3.964
92902.000			11.893			-3.964
93001.000			11.894			-3.965
93100.000			11.893			-3.964
93201.000			11.893			-3.964
93300.000			11.893			-3.964
93400.000			11.893			-3.964
93501.000			11.894			-3.965
93600.000			11.894			-3.965
93702.000			11.893			-3.964
93801.000			11.894			-3.965
93901.000			11.893			-3.964
94001.000			11.893			-3.964
94100.000			11.894			-3.965
94200.000			11.893			-3.964
94301.000			11.892			-3.964
94400.000			11.892			-3.964
94500.000			11.892			-3.964
94602.000			11.892			-3.964
94701.000			11.891			-3.964
94800.000			11.890			-3.963
94901.000			11.891			-3.964
95000.000			11.890			-3.963
95100.000			11.890			-3.963
95201.000			11.890			-3.963
95300.000			11.890			-3.963
95401.000			11.889			-3.963
95502.000			11.891			-3.964
95601.000			11.891			-3.964
95700.000			11.890			-3.963
95801.000			11.890			-3.963
95900.000			11.889			-3.963
96000.000			11.890			-3.963
96101.000			11.890			-3.963
96200.000			11.889			-3.963
96301.000			11.889			-3.963
96402.000			11.889			-3.963
96500.000			11.889			-3.963
96600.000			11.888			-3.963
96701.000			11.888			-3.963
96800.000			11.889			-3.963
96900.000			11.888			-3.963
97000.000			11.887			-3.962
97101.000			11.888			-3.963
97202.000			11.889			-3.963
97301.000			11.887			-3.962
97400.000			11.887			-3.962
97501.000			11.887			-3.962
97600.000			11.886			-3.962
97700.000			11.886			-3.962
97801.000			11.887			-3.962
97900.000			11.887			-3.962
98001.000			11.886			-3.962
98102.000			11.886			-3.962
98200.000			11.886			-3.962
98300.000			11.886			-3.962
98401.000			11.886			-3.962
98500.000			11.886			-3.962
98600.000			11.887			-3.962
98701.000			11.886			-3.962
98800.000			11.886			-3.962
98901.000			11.886			-3.962
99002.000			11.886			-3.962
99100.000			11.884			-3.961
99200.000			11.885			-3.962
99301.000			11.885			-3.962
99400.000			11.884			-3.961
99500.000			11.884			-3.961
99601.000			11.885			-3.962
99701.000			11.885			-3.962
99801.000			11.885			-3.962
99902.000			11.884			-3.961
100000.000			11.883			-3.961
100100.000			11.884			-3.961
100200.000			11.884			-3.961
100300.000			11.884			-3.961
100401.000			11.884			-3.961
100500.000			11.884			-3.961
100601.000			11.883			-3.961
100702.000			11.883			-3.961
100800.000			11.883			-3.961
100900.000			11.882			-3.961
101001.000			11.883			-3.961
101100.000			11.883			-3.961
101200.000			11.882			-3.961
101301.000			11.881			-3.960
101401.000			11.881			-3.960
101501.000			11.883			-3.961
101602.000			11.882			-3.961
101700.000			11.881			-3.960
101800.000			11.882			-3.961
101901.000			11.882			-3.961
102000.000			11.881			-3.960
102100.000			11.881			-3.960
102201.000			11.881			-3.960
102301.000			11.881			-3.960
102401.000			11.881			-3.960
102501.000			11.881			-3.960
102600.000			11.880			-3.960
102700.000			11.880			-3.960
102801.000			11.880			-3.960
102900.000			11.880			-3.960
103000.000			11.880			-3.960
103102.000			11.879			-3.960
103201.000			11.879			-3.960
103302.000			11.880			-3.960
103400.000			11.880			-3.960
103500.000			11.879			-3.960
103601.000			11.879			-3.960
103700.000			11.879			-3.960
103800.000			11.879			-3.960
103901.000			11.879			-3.960
104001.000			11.878			-3.959
104101.000			11.878			-3.959
104201.000			11.878			-3.959
104300.000			11.879			-3.960
104400.000			11.878			-3.959
104501.000			11.878			-3.959
104600.000			11.877			-3.959
104700.000			11.877			-3.959
104802.000			11.877			-3.959
104901.000			11.877			-3.959
105001.000			11.877			-3.959
105101.000			11.876			-3.959
105200.000			11.877			-3.959
105300.000			11.877			-3.959
105401.000			11.877			-3.959
105500.000			11.877			-3.959
105600.000			11.877			-3.959
105702.000			11.877			-3.959
105801.000			11.877			-3.959
105900.000			11.876			-3.959
106001.000			11.876			-3.959
106100.000			11.876			-3.959
106200.000			11.877			-3.959
106301.000			11.876			-3.959
106400.000			11.876			-3.959
106500.000			11.875			-3.958
106602.000			11.875			-3.958
106701.000			11.875			-3.958
106801.000			11.874			-3.958
106900.000			11.874			-3.958
107000.000			11.874			-3.958
107101.000			11.875			-3.958
107200.000			11.874			-3.958
107300.000			11.875			-3.958
107402.000			11.874			-3.958
107501.000			11.874			-3.958
107601.000			11.874			-3.958
107701.000			11.873			-3.958
107800.000			11.873			-3.958
107900.000			11.874			-3.958
108001.000			11.873			-3.958
108100.000			11.874			-3.958
108200.000			11.872			-3.957
108302.000			11.872			-3.957
108401.000			11.872			-3.957
108500.000			11.873			-3.958
108601.000			11.872			-3.957
108700.000			11.872			-3.957
108800.000			11.872			-3.957
108901.000			11.871			-3.957
109000.000			11.871			-3.957
109100.000			11.872			-3.957
109202.000			11.872			-3.957
109301.000			11.872			-3.957
109400.000			11.871			-3.957
109501.000			11.872			-3.957
109600.000			11.871			-3.957
109700.000			11.870			-3.957
109800.000			11.870			-3.957
109900.000			11.871			-3.957
110002.000			11.870			-3.957
110101.000			11.871			-3.957
110200.000			11.871			-3.957
110301.000			11.871			-3.957
110400.000			11.870			-3.957
110500.000			11.871			-3.957
110601.000			11.871			-3.957
110700.000			11.870			-3.957
110800.000			11.870			-3.957
110902.000			11.869			-3.956
111001.000			11.870			-3.957
111100.000			11.870			-3.957
111201.000			11.871			-3.957
111300.000			11.869			-3.956
111400.000			11.868			-3.956
111501.000			11.868			-3.956
111600.000			11.869			-3.956
111701.000			11.869			-3.956
111802.000			11.869			-3.956
111900.000			11.868			-3.956
112000.000			11.868			-3.956
112101.000			11.869			-3.956
112200.000			11.869			-3.956
112300.000			11.867			-3.956
112401.000			11.867			-3.956
112500.000			11.867			-3.956
112601.000			11.869			-3.956
112702.000			11.869			-3.956
112800.000			11.868			-3.956
112900.000			11.867			-3.956
113000.000			11.867			-3.956
113100.000			11.867			-3.956
113201.000			11.867			-3.956
113300.000			11.867			-3.956
113401.000			11.867			-3.956
113502.000			11.867			-3.956
113600.000			11.867			-3.956
113700.000			11.866			-3.955
113801.000			11.865			-3.955
113900.000			11.865			-3.955
114000.000			11.866			-3.955
114101.000			11.865			-3.955
114200.000			11.865			-3.955
114301.000			11.866			-3.955
114402.000			11.866			-3.955
114500.000			11.866			-3.955
114600.000			11.865			-3.955
114701.000			11.865			-3.955
114800.000			11.865			-3.955
114900.000			11.865			-3.955
115001.000			11.865			-3.955
115101.000			11.865			-3.955
115201.000			11.865			-3.955
115301.000			11.864			-3.955
115400.000			11.865			-3.955
115500.000			11.865			-3.955
115601.000			11.865			-3.955
115700.000			11.865			-3.955
115800.000			11.865			-3.955
115901.000			11.864			-3.955
116001.000			11.864			-3.955
116102.000			11.863			-3.954
116200.000			11.863			-3.954
116300.000			11.863			-3.954
116401.000			11.863			-3.954
116500.000			11.863			-3.954
116600.000			11.862			-3.954
116701.000			11.863			-3.954
116801.000			11.863			-3.954
116901.000			11.863			-3.954
117002.000			11.863			-3.954
117100.000			11.863			-3.954
117200.000			11.862			-3.954
117301.000			11.862			-3.954
117400.000			11.863			-3.954
117500.000			11.862			-3.954
117601.000			11.862			-3.954
117701.000			11.862			-3.954
117801.000			11.862			-3.954
117901.000			11.862			-3.954
118000.000			11.861			-3.954
118100.000			11.860			-3.953
118201.000			11.861			-3.954
118300.000			11.860			-3.953
118400.000			11.861			-3.954
118502.000			11.862			-3.954
118601.000			11.861			-3.954
118701.000			11.861			-3.954
118801.000			11.861			-3.954
118900.000			11.860			-3.953
119000.000			11.859			-3.953
119101.000			11.859			-3.953
119200.000			11.859			-3.953
119300.000			11.860			-3.953
119402.000			11.861			-3.954
119501.000			11.861			-3.954
119601.000			11.859			-3.953
119700.000			11.858			-3.953
119800.000			11.859			-3.953
119901.000			11.860			-3.953
120000.000			11.860			-3.953
120100.000			11.859			-3.953
120201.000			11.859			-3.953
120301.000			11.859			-3.953
120401.000			11.860			-3.953
120501.000			11.859			-3.953
120600.000			11.859			-3.953
120700.000			11.859			-3.953
120801.000			11.859			-3.953
120900.000			11.859			-3.953
121000.000			11.858			-3.953
121102.000			11.858			-3.953
121201.000			11.857			-3.952
121301.000			11.858			-3.953
121401.000			11.858			-3.953
121500.000			11.858			-3.953
121600.000			11.857			-3.952
121701.000			11.856			-3.952
121800.000			11.858			-3.953
121900.000			11.857			-3.952
122002.000			11.857			-3.952
122101.000			11.857			-3.952
122200.000			11.856			-3.952
122301.000			11.857			-3.952
122400.000			11.857			-3.952
122500.000			11.857			-3.952
122600.000			11.857			-3.952
122700.000			11.857			-3.952
122801.000			11.857			-3.952
122901.000			11.856			-3.952
123001.000			11.855			-3.952
123101.000			11.856			-3.952
123200.000			11.856			-3.952
123300.000			11.854			-3.951
123401.000			11.854			-3.951
123500.000			11.856			-3.952
123600.000			11.856			-3.952
123702.000			11.856			-3.952
123801.000			11.856			-3.952
123900.000			11.856			-3.952
124001.000			11.855			-3.952
124100.000			11.854			-3.951
124200.000			11.855			-3.952
124301.000			11.854			-3.951
124400.000			11.855			-3.952
124500.000			11.854			-3.951
124602.000			11.855			-3.952
124701.000			11.854			-3.951
124800.000			11.854			-3.951
124901.000			11.854			-3.951
125000.000			11.853			-3.951
125100.000			11.854			-3.951
125201.000			11.853			-3.951
125300.000			11.852			-3.951
125401.000			11.853			-3.951
125502.000			11.854			-3.951
125600.000			11.854			-3.951
125700.000			11.853			-3.951
125800.000			11.853			-3.951
125900.000			11.852			-3.951
126001.000			11.852			-3.951
126100.000			11.853			-3.951
126200.000			11.853			-3.951
126302.000			11.853			-3.951
126401.000			11.852			-3.951
126500.000			11.852			-3.951
126601.000			11.852			-3.951
126700.000			11.852			-3.951
126800.000			11.851			-3.950
126901.000			11.852			-3.951
127000.000			11.852			-3.951
127101.000			11.852			-3.951
127202.000			11.851			-3.950
127301.000			11.852			-3.951
127400.000			11.852			-3.951
127501.000			11.851			-3.950
127600.000			11.851			-3.950
127700.000			11.851			-3.950
127801.000			11.851			-3.950
127900.000			11.850			-3.950
128001.000			11.851			-3.950
128102.000			11.851			-3.950
128200.000			11.850			-3.950
128300.000			11.849			-3.950
128401.000			11.850			-3.950
128500.000			11.850			-3.950
128600.000			11.849			-3.950
128701.000			11.850			-3.950
128801.000			11.851			-3.950
128902.000			11.850			-3.950
129001.000			11.850			-3.950
129100.000			11.849			-3.950
129201.000			11.849			-3.950
129300.000			11.849			-3.950
129400.000			11.849			-3.950
129501.000			11.849			-3.950
129600.000			11.849			-3.950
129701.000			11.849			-3.950
129802.000			11.849			-3.950
129901.000			11.849			-3.950
130000.000			11.848			-3.949
130101.000			11.849			-3.950
130200.000			11.850			-3.950
130300.000			11.850			-3.950
130401.000			11.849			-3.950
130500.000			11.848			-3.949
130601.000			11.848			-3.949
130702.000			11.848			-3.949
130801.000			11.848			-3.949
130900.000			11.848			-3.949
131001.000			11.848			-3.949
131100.000			11.847			-3.949
131200.000			11.847			-3.949
131301.000			11.847			-3.949
131400.000			11.847			-3.949
131501.000			11.847			-3.949
131602.000			11.845			-3.948
131701.000			11.846			-3.949
131800.000			11.846			-3.949
131901.000			11.845			-3.948
132000.000			11.845			-3.948
132100.000			11.845			-3.948
132200.000			11.846			-3.949
132300.000			11.846			-3.949
132402.000			11.846			-3.949
132501.000			11.846			-3.949
132601.000			11.845			-3.948
132701.000			11.845			-3.948
132800.000			11.845			-3.948
132900.000			11.845			-3.948
133001.000			11.846			-3.949
133100.000			11.845			-3.948
133200.000			11.844			-3.948
133301.000			11.845			-3.948
133401.000			11.844			-3.948
133501.000			11.844			-3.948
133601.000			11.844			-3.948
133700.000			11.844			-3.948
133800.000			11.844			-3.948
133901.000			11.844			-3.948
134000.000			11.843			-3.948
134100.000			11.844			-3.948
134201.000			11.844			-3.948
134301.000			11.844			-3.948
134401.000			11.844			-3.948
134501.000			11.844			-3.948
134600.000			11.844			-3.948
134700.000			11.843			-3.948
134801.000			11.843			-3.948
134900.000			11.843			-3.948
135000.000			11.842			-3.947
135101.000			11.842			-3.947
135201.000			11.843			-3.948
135302.000			11.844			-3.948
135401.000			11.843			-3.948
135500.000			11.843			-3.948
135601.000			11.842			-3.947
135700.000			11.843			-3.948
135800.000			11.842			-3.947
135901.000			11.841			-3.947
136000.000			11.842			-3.947
136101.000			11.842			-3.947
136202.000			11.841			-3.947
136301.000			11.841			-3.947
136400.000			11.841			-3.947
136501.000			11.842			-3.947
136600.000			11.841			-3.947
136700.000			11.841			-3.947
136801.000			11.841			-3.947
136900.000			11.841			-3.947
137000.000			11.841			-3.947
137102.000			11.842			-3.947
137201.000			11.841			-3.947
137300.000			11.842			-3.947
137401.000			11.841			-3.947
137500.000			11.841			-3.947
137600.000			11.840			-3.947
137701.000			11.841			-3.947
137800.000			11.840			-3.947
137900.000			11.840			-3.947
138002.000			11.841			-3.947
138101.000			11.841			-3.947
138200.000			11.840			-3.947
138301.000			11.840			-3.947
138400.000			11.840			-3.947
138500.000			11.841			-3.947
138600.000			11.839			-3.946
138700.000			11.840			-3.947
138801.000			11.840			-3.947
138901.000			11.839			-3.946
139001.000			11.838			-3.946
139102.000			11.838			-3.946
139200.000			11.839			-3.946
139300.000			11.839			-3.946
139401.000			11.838			-3.946
139500.000			11.838			-3.946
139600.000			11.838			-3.946
139701.000			11.838			-3.946
139800.000			11.838			-3.946
139901.000			11.838			-3.946
140002.000			11.837			-3.946
140100.000			11.837			-3.946
140200.000			11.838			-3.946
140301.000			11.839			-3.946
140400.000			11.838			-3.946
140500.000			11.838			-3.946
140601.000			11.839			-3.946
140700.000			11.838			-3.946
140801.000			11.839			-3.946
140902.000			11.837			-3.946
141001.000			11.838			-3.946
141100.000			11.838			-3.946
141201.000			11.837			-3.946
141300.000			11.836			-3.945
141400.000			11.836			-3.945
141501.000			11.837			-3.946
141600.000			11.836			-3.945
141702.000			11.837			-3.946
141801.000			11.836			-3.945
141901.000			11.836			-3.945
142001.000			11.836			-3.945
142100.000			11.836			-3.945
142200.000			11.836			-3.945
142301.000			11.836			-3.945
142400.000			11.837			-3.946
142500.000			11.837			-3.946
142601.000			11.836			-3.945
142701.000			11.836			-3.945
142801.000			11.834			-3.945
142901.000			11.835			-3.945
143000.000			11.834			-3.945
143100.000			11.836			-3.945
143201.000			11.835			-3.945
143300.000			11.835			-3.945
143400.000			11.835			-3.945
143501.000			11.835			-3.945
143601.000			11.835			-3.945
143701.000			11.835			-3.945
143801.000			11.835			-3.945
143900.000			11.834			-3.945
144000.000			11.834			-3.945
144101.000			11.834			-3.945
144200.000			11.834			-3.945
144300.000			11.834			-3.945
144401.000			11.834			-3.945
144501.000			11.834			-3.945
144601.000			11.834			-3.945
144701.000			11.833			-3.944
144800.000			11.832			-3.944
144900.000			11.833			-3.944
145000.000			11.834			-3.945
145100.000			11.833			-3.944
145201.000			11.832			-3.944
145300.000			11.834			-3.945
145401.000			11.832			-3.944
145502.000			11.833			-3.944
145601.000			11.833			-3.944
145700.000			11.833			-3.944
145801.000			11.833			-3.944
145900.000			11.832			-3.944
146000.000			11.833			-3.944
146101.000			11.832			-3.944
146200.000			11.833			-3.944
146300.000			11.833			-3.944
146402.000			11.832			-3.944
146501.000			11.832			-3.944
146600.000			11.830			-3.943
146701.000			11.831			-3.944
146800.000			11.831			-3.944
146900.000			11.830			-3.943
147001.000			11.832			-3.944
147100.000			11.832			-3.944
147200.000			11.831			-3.944
147302.000			11.832			-3.944
147401.000			11.832			-3.944
147500.000			11.831			-3.944
147601.000			11.831			-3.944
147700.000			11.831			-3.944
147800.000			11.831			-3.944
147901.000			11.831			-3.944
148000.000			11.831			-3.944
148100.000			11.831			-3.944
148202.000			11.830			-3.943
148301.000			11.831			-3.944
148402.000			11.831			-3.944
148500.000			11.830			-3.943
148600.000			11.830			-3.943
148701.000			11.829			-3.943
148800.000			11.830			-3.943
148900.000			11.829			-3.943
149001.000			11.828			-3.943
149100.000			11.829			-3.943
149201.000			11.829			-3.943
149302.000			11.829			-3.943
149401.000			11.830			-3.943
149500.000			11.830			-3.943
149601.000			11.829			-3.943
149700.000			11.829			-3.943
149800.000			11.828			-3.943
149901.000			11.829			-3.943
150000.000			11.829			-3.943
150100.000			11.829			-3.943
150202.000			11.829			-3.943
150301.000			11.828			-3.943
150400.000			11.828			-3.943
150501.000			11.828			-3.943
150600.000			11.829			-3.943
150700.000			11.829			-3.943
150801.000			11.828			-3.943
150900.000			11.828			-3.943
151000.000			11.827			-3.942
151102.000			11.827			-3.942
151201.000			11.827			-3.942
151300.000			11.827			-3.942
151400.000			11.827			-3.942
151500.000			11.828			-3.943
151601.000			11.828			-3.943
151700.000			11.827			-3.942
151800.000			11.827			-3.942
151901.000			11.827			-3.942
152001.000			11.827			-3.942
152101.000			11.826			-3.942
152201.000			11.827			-3.942
152300.000			11.826			-3.942
152400.000			11.826			-3.942
152501.000			11.826			-3.942
152600.000			11.825			-3.942
152700.000			11.826			-3.942
152801.000			11.826			-3.942
152901.000			11.827			-3.942
153001.000			11.827			-3.942
153102.000			11.826			-3.942
153200.000			11.826			-3.942
153300.000			11.825			-3.942
153401.000			11.826			-3.942
153500.000			11.827			-3.942
153600.000			11.826			-3.942
153701.000			11.826			-3.942
153800.000			11.825			-3.942
153901.000			11.825			-3.942
154002.000			11.826			-3.942
154100.000			11.826			-3.942
154200.000			11.825			-3.942
154301.000			11.825			-3.942
154400.000			11.826			-3.942
154500.000			11.824			-3.941
154600.000			11.824			-3.941
154700.000			11.824			-3.941
154802.000			11.825			-3.942
154901.000			11.825			-3.942
155001.000			11.824			-3.941
155101.000			11.824			-3.941
155200.000			11.824			-3.941
155300.000			11.824			-3.941
155401.000			11.824			-3.941
155500.000			11.824			-3.941
155600.000			11.824			-3.941
155702.000			11.824			-3.941
155801.000			11.825			-3.942
155901.000			11.825			-3.942
156001.000			11.825			-3.942
156100.000			11.824			-3.941
156200.000			11.824			-3.941
156301.000			11.824			-3.941
156400.000			11.823			-3.941
156500.000			11.823			-3.941
156601.000			11.823			-3.941
156701.000			11.823			-3.941
156801.000			11.823			-3.941
156901.000			11.823			-3.941
157000.000			11.823			-3.941
157100.000			11.823			-3.941
157201.000			11.822			-3.941
157300.000			11.822			-3.941
157400.000			11.823			-3.941
157501.000			11.822			-3.941
157601.000			11.821			-3.940
157702.000			11.823			-3.941
157800.000			11.822			-3.941
157900.000			11.821			-3.940
158001.000			11.821			-3.940
158100.000			11.822			-3.941
158200.000			11.822			-3.941
158301.000			11.822			-3.941
158400.000			11.822			-3.941
158501.000			11.822			-3.941
158602.000			11.822			-3.941
158701.000			11.821			-3.940
158800.000			11.821			-3.940
158901.000			11.821			-3.940
159000.000			11.821			-3.940
159100.000			11.821			-3.940
159201.000			11.821			-3.940
159300.000			11.820			-3.940
159401.000			11.819			-3.940
159502.000			11.820			-3.940
159601.000			11.820			-3.940
159700.000			11.821			-3.940
159801.000			11.820			-3.940
159900.000			11.820			-3.940
160000.000			11.820			-3.940
160101.000			11.819			-3.940
160200.000			11.820			-3.940
160300.000			11.820			-3.940
160402.000			11.819			-3.940
160501.000			11.820			-3.940
160601.000			11.820			-3.940
160701.000			11.818			-3.939
160800.000			11.819			-3.940
160900.000			11.819			-3.940
161000.000			11.819			-3.940
161100.000			11.819			-3.940
161201.000			11.819			-3.940
161301.000			11.819			-3.940
161401.000			11.819			-3.940
161502.000			11.818			-3.939
161600.000			11.818			-3.939
161700.000			11.818			-3.939
161801.000			11.817			-3.939
161900.000			11.817			-3.939
162000.000			11.819			-3.940
162101.000			11.818			-3.939
162200.000			11.818			-3.939
162301.000			11.817			-3.939
162402.000			11.819			-3.940
162500.000			11.818			-3.939
162600.000			11.818			-3.939
162701.000			11.818			-3.939
162800.000			11.818			-3.939
162900.000			11.818			-3.939
163001.000			11.817			-3.939
163100.000			11.817			-3.939
163201.000			11.817			-3.939
163302.000			11.817			-3.939
163401.000			11.817			-3.939
163500.000			11.817			-3.939
163601.000			11.817			-3.939
163700.000			11.817			-3.939
163800.000			11.817			-3.939
163901.000			11.817			-3.939
164000.000			11.817			-3.939
164100.000			11.816			-3.939
164202.000			11.817			-3.939
164301.000			11.817			-3.939
164401.000			11.816			-3.939
164500.000			11.817			-3.939
164600.000			11.817			-3.939
164701.000			11.815			-3.938
164800.000			11.816			-3.939
164900.000			11.816			-3.939
165001.000			11.816			-3.939
165101.000			11.816			-3.939
165201.000			11.815			-3.938
165301.000			11.815			-3.938
165400.000			11.815			-3.938
165500.000			11.816			-3.939
165601.000			11.816			-3.939
165700.000			11.816			-3.939
165800.000			11.814			-3.938
165901.000			11.814			-3.938
166001.000			11.814			-3.938
166101.000			11.814			-3.938
166202.000			11.815			-3.938
166300.000			11.815			-3.938
166400.000			11.814			-3.938
166501.000			11.814			-3.938
166600.000			11.815			-3.938
166700.000			11.815			-3.938
166801.000			11.814			-3.938
166900.000			11.813			-3.938
167001.000			11.814			-3.938
167102.000			11.813			-3.938
167200.000			11.814			-3.938
167300.000			11.814			-3.938
167400.000			11.814			-3.938
167500.000			11.815			-3.938
167601.000			11.814			-3.938
167700.000			11.814			-3.938
167800.000			11.814			-3.938
167902.000			11.814			-3.938
168001.000			11.813			-3.938
168101.000			11.813			-3.938
168201.000			11.813			-3.938
168300.000			11.814			-3.938
168400.000			11.813			-3.938
168501.000			11.812			-3.937
168600.000			11.812			-3.937
168700.000			11.812			-3.937
168801.000			11.813			-3.938
168901.000			11.813			-3.938
169001.000			11.813			-3.938
169101.000			11.813			-3.938
169200.000			11.813			-3.938
169300.000			11.813			-3.938
169401.000			11.812			-3.937
169500.000			11.812			-3.937
169600.000			11.811			-3.937
169701.000			11.811			-3.937
169801.000			11.812			-3.937
169901.000			11.812			-3.937
170001.000			11.812			-3.937
170100.000			11.811			-3.937
170200.000			11.812			-3.937
170301.000			11.812			-3.937
170400.000			11.812			-3.937
170500.000			11.812			-3.937
170600.000			11.811			-3.937
170701.000			11.812			-3.937
170802.000			11.812			-3.937
170901.000			11.811			-3.937
171000.000			11.811			-3.937
171101.000			11.811			-3.937
171200.000			11.812			-3.937
171300.000			11.811			-3.937
171401.000			11.810			-3.937
171500.000			11.809			-3.936
171601.000			11.810			-3.937
171702.000			11.811			-3.937
171801.000			11.810			-3.937
171900.000			11.811			-3.937
172001.000			11.811			-3.937
172100.000			11.810			-3.937
172200.000			11.809			-3.936
172301.000			11.809			-3.936
172400.000			11.810			-3.937
172500.000			11.810			-3.937
172602.000			11.809			-3.936
172701.000			11.809			-3.936
172800.000			11.810			-3.937
172901.000			11.809			-3.936
173000.000			11.809			-3.936
173100.000			11.809			-3.936
173201.000			11.809			-3.936
173300.000			11.809			-3.936
173400.000			11.809			-3.936
173502.000			11.809			-3.936
173601.000			11.809			-3.936
173700.000			11.808			-3.936
173800.000			11.809			-3.936
173900.000			11.808			-3.936
174001.000			11.808			-3.936
174100.000			11.808			-3.936
174200.000			11.809			-3.936
174301.000			11.809			-3.936
174401.000			11.809			-3.936
174501.000			11.809			-3.936
174602.000			11.807			-3.936
174700.000			11.807			-3.936
174800.000			11.807			-3.936
174901.000			11.807			-3.936
175000.000			11.807			-3.936
175100.000			11.807			-3.936
175201.000			11.807			-3.936
175300.000			11.808			-3.936
175401.000			11.808			-3.936
175502.000			11.807			-3.936
175600.000			11.807			-3.936
175700.000			11.807			-3.936
175801.000			11.807			-3.936
175900.000			11.808			-3.936
176000.000			11.808			-3.936
176101.000			11.808			-3.936
176200.000			11.807			-3.936
176301.000			11.808			-3.936
176402.000			11.807			-3.936
176501.000			11.806			-3.935
176600.000			11.806			-3.935
176701.000			11.807			-3.936
176800.000			11.807			-3.936
176900.000			11.806			-3.935
177000.000			11.805			-3.935
177100.000			11.805			-3.935
177201.000			11.806			-3.935
177301.000			11.806			-3.935
177401.000			11.805			-3.935
177501.000			11.806			-3.935
177600.000			11.806			-3.935
177700.000			11.806			-3.935
177801.000			11.805			-3.935
177900.000			11.805			-3.935
178000.000			11.806			-3.935
178101.000			11.806			-3.935
178200.000			11.805			-3.935
178301.000			11.806			-3.935
178402.000			11.806			-3.935
178500.000			11.805			-3.935
178600.000			11.805			-3.935
178701.000			11.805			-3.935
178800.000			11.805			-3.935
178900.000			11.804			-3.935
179001.000			11.805			-3.935
179100.000			11.804			-3.935
179201.000			11.804			-3.935
179302.000			11.803			-3.934
179401.000			11.803			-3.934
179500.000			11.803			-3.934
179601.000			11.803			-3.934
179700.000			11.803			-3.934
179800.000			11.804			-3.935
179901.000			11.804			-3.935
180000.000			11.803			-3.934
180102.000			11.804			-3.935
180201.000			11.804			-3.935
180301.000			11.803			-3.934
180401.000			11.803			-3.934
180500.000			11.804			-3.935
180600.000			11.803			-3.934
180701.000			11.803			-3.934
180800.000			11.802			-3.934
180900.000			11.803			-3.934
181001.000			11.804			-3.935
181101.000			11.803			-3.934
181201.000			11.803			-3.934
181301.000			11.802			-3.934
181400.000			11.802			-3.934
181500.000			11.802			-3.934
181601.000			11.803			-3.934
181700.000			11.803			-3.934
181800.000			11.804			-3.935
181901.000			11.804			-3.935
182001.000			11.803			-3.934
182101.000			11.802			-3.934
182201.000			11.802			-3.934
182300.000			11.802			-3.934
182400.000			11.801			-3.934
182501.000			11.801			-3.934
182600.000			11.801			-3.934
182700.000			11.801			-3.934
182801.000			11.801			-3.934
182901.000			11.802			-3.934
183001.000			11.802			-3.934
183101.000			11.802			-3.934
183200.000			11.801			-3.934
183300.000			11.801			-3.934
183400.000			11.801			-3.934
183500.000			11.800			-3.933
183601.000			11.800			-3.933
183700.000			11.800			-3.933
183801.000			11.801			-3.934
183902.000			11.800			-3.933
184000.000			11.800			-3.933
184100.000			11.800			-3.933
184201.000			11.801			-3.934
184300.000			11.799			-3.933
184400.000			11.799			-3.933
184501.000			11.799			-3.933
184600.000			11.799			-3.933
184700.000			11.799			-3.933
184802.000			11.800			-3.933
184901.000			11.800			-3.933
185000.000			11.799			-3.933
185101.000			11.799			-3.933
185200.000			11.799			-3.933
185300.000			11.800			-3.933
185401.000			11.800			-3.933
185500.000			11.800			-3.933
185600.000			11.801			-3.934
185702.000			11.800			-3.933
185801.000			11.798			-3.933
185901.000			11.799			-3.933
186001.000			11.799			-3.933
186100.000			11.799			-3.933
186200.000			11.799			-3.933
186301.000			11.799			-3.933
186400.000			11.800			-3.933
186500.000			11.799			-3.933
186600.000			11.799			-3.933
186701.000			11.799			-3.933
186802.000			11.798			-3.933
186901.000			11.798			-3.933
187000.000			11.798			-3.933
187101.000			11.799			-3.933
187200.000			11.799			-3.933
187300.000			11.798			-3.933
187401.000			11.799			-3.933
187500.000			11.799			-3.933
187600.000			11.799			-3.933
187702.000			11.799			-3.933
187801.000			11.798			-3.933
187901.000			11.798			-3.933
188001.000			11.797			-3.932
188100.000			11.797			-3.932
188200.000			11.796			-3.932
188301.000			11.797			-3.932
188400.000			11.798			-3.933
188500.000			11.797			-3.932
188601.000			11.798			-3.933
188701.000			11.797			-3.932
188801.000			11.796			-3.932
188902.000			11.796			-3.932
189000.000			11.796			-3.932
189100.000			11.797			-3.932
189201.000			11.797			-3.932
189300.000			11.797			-3.932
189400.000			11.797			-3.932
189501.000			11.797			-3.932
189600.000			11.796			-3.932
189700.000			11.796			-3.932
189802.000			11.795			-3.932
189901.000			11.797			-3.932
190001.000			11.797			-3.932
190100.000			11.797			-3.932
190200.000			11.796			-3.932
190301.000			11.796			-3.932
190400.000			11.796			-3.932
190500.000			11.796			-3.932
190601.000			11.795			-3.932
190701.000			11.795			-3.932
190801.000			11.796			-3.932
190902.000			11.796			-3.932
191000.000			11.796			-3.932
191100.000			11.795			-3.932
191201.000			11.795			-3.932
191300.000			11.795			-3.932
191400.000			11.795			-3.932
191501.000			11.796			-3.932
191600.000			11.796			-3.932
191701.000			11.796			-3.932
191802.000			11.795			-3.932
191901.000			11.794			-3.931
192000.000			11.795			-3.932
192101.000			11.795			-3.932
192200.000			11.794			-3.931
192300.000			11.794			-3.931
192401.000			11.794			-3.931
192500.000			11.793			-3.931
192600.000			11.793			-3.931
192702.000			11.793			-3.931
192801.000			11.794			-3.931
192902.000			11.793			-3.931
193000.000			11.794			-3.931
193100.000			11.793			-3.931
193201.000			11.793			-3.931
193300.000			11.794			-3.931
193400.000			11.794			-3.931
193501.000			11.794			-3.931
193600.000			11.794			-3.931
193701.000			11.794			-3.931
193802.000			11.794			-3.931
193900.000			11.794			-3.931
194000.000			11.794			-3.931
194101.000			11.793			-3.931
194200.000			11.793			-3.931
194300.000			11.792			-3.931
194401.000			11.792			-3.931
194500.000			11.793			-3.931
194601.000			11.793			-3.931
194702.000			11.792			-3.931
194801.000			11.793			-3.931
194900.000			11.793			-3.931
195001.000			11.793			-3.931
195100.000			11.793			-3.931
195200.000			11.792			-3.931
195301.000			11.792			-3.931
195400.000			11.792			-3.931
195500.000			11.793			-3.931
195602.000			11.793			-3.931
195701.000			11.792			-3.931
195801.000			11.792			-3.931
195901.000			11.792			-3.931
196000.000			11.791			-3.930
196100.000			11.792			-3.931
196200.000			11.792			-3.931
196300.000			11.792			-3.931
196401.000			11.791			-3.930
196500.000			11.792			-3.931
196601.000			11.792			-3.931
196702.000			11.791			-3.930
196801.000			11.791			-3.930
196900.000			11.792			-3.931
197001.000			11.792			-3.931
197100.000			11.792			-3.931
197200.000			11.791			-3.930
197301.000			11.791			-3.930
197400.000			11.792			-3.931
197500.000			11.792			-3.931
197602.000			11.791			-3.930
197701.000			11.791			-3.930
197801.000			11.790			-3.930
197901.000			11.791			-3.930
198000.000			11.790			-3.930
198100.000			11.791			-3.930
198201.000			11.790			-3.930
198300.000			11.790			-3.930
198400.000			11.791			-3.930
198501.000			11.790			-3.930
198601.000			11.790			-3.930
198701.000			11.790			-3.930
198801.000			11.790			-3.930
198900.000			11.789			-3.930
199000.000			11.790			-3.930
199101.000			11.790			-3.930
199200.000			11.789			-3.930
199300.000			11.789			-3.930
199400.000			11.791			-3.930
199500.000			11.791			-3.930
199602.000			11.790			-3.930
199701.000			11.790			-3.930
199800.000			11.789			-3.930
199901.000			11.789			-3.930
200000.000			11.790			-3.930
200100.000			11.790			-3.930
200201.000			11.789			-3.930
200300.000			11.788			-3.929
200400.000			11.789			-3.930
200502.000			11.789			-3.930
200601.000			11.789			-3.930
200701.000			11.789			-3.930
200801.000			11.789			-3.930
200900.000			11.788			-3.929
201000.000			11.788			-3.929
201101.000			11.789			-3.930
201200.000			11.788			-3.929
201300.000			11.788			-3.929
201402.000			11.788			-3.929
201501.000			11.788			-3.929
201601.000			11.789			-3.930
201701.000			11.788			-3.929
201800.000			11.788			-3.929
201900.000			11.788			-3.929
202001.000			11.788			-3.929
202100.000			11.788			-3.929
202200.000			11.788			-3.929
202301.000			11.788			-3.929
202401.000			11.787			-3.929
202502.000			11.787			-3.929
202601.000			11.786			-3.929
202700.000			11.786			-3.929
202801.000			11.787			-3.929
202900.000			11.786			-3.929
203000.000			11.786			-3.929
203101.000			11.787			-3.929
203200.000			11.786			-3.929
203301.000			11.786			-3.929
203402.000			11.786			-3.929
203501.000			11.786			-3.929
203600.000			11.786			-3.929
203701.000			11.786			-3.929
203800.000			11.786			-3.929
203900.000			11.786			-3.929
204001.000			11.786			-3.929
204100.000			11.785			-3.928
204200.000			11.786			-3.929
204302.000			11.786			-3.929
204401.000			11.786			-3.929
204500.000			11.786			-3.929
204601.000			11.786			-3.929
204700.000			11.785			-3.928
204800.000			11.785			-3.928
204901.000			11.785			-3.928
205000.000			11.785			-3.928
205100.000			11.786			-3.929
205202.000			11.786			-3.929
205301.000			11.785			-3.928
205401.000			11.785			-3.928
205501.000			11.784			-3.928
205600.000			11.784			-3.928
205700.000			11.784			-3.928
205800.000			11.785			-3.928
205900.000			11.785			-3.928
206001.000			11.785			-3.928
206100.000			11.784			-3.928
206201.000			11.784			-3.928
206302.000			11.784			-3.928
206400.000			11.785			-3.928
206500.000			11.784			-3.928
206601.000			11.784			-3.928
206700.000			11.783			-3.928
206800.000			11.784			-3.928
206901.000			11.784			-3.928
207000.000			11.783			-3.928
207101.000			11.784			-3.928
207202.000			11.784			-3.928
207300.000			11.783			-3.928
207400.000			11.783			-3.928
207501.000			11.784			-3.928
207600.000			11.785			-3.928
207700.000			11.783			-3.928
207801.000			11.784			-3.928
207900.000			11.783			-3.928
208001.000			11.783			-3.928
208102.000			11.784			-3.928
208201.000			11.784			-3.928
208300.000			11.784			-3.928
208401.000			11.782			-3.927
208500.000			11.782			-3.927
208600.000			11.783			-3.928
208701.000			11.783			-3.928
208800.000			11.783			-3.928
208900.000			11.784			-3.928
209002.000			11.784			-3.928
209101.000			11.784			-3.928
209201.000			11.782			-3.927
209300.000			11.782			-3.927
209400.000			11.783			-3.928
209501.000			11.783			-3.928
209600.000			11.783			-3.928
209700.000			11.783			-3.928
209801.000			11.782			-3.927
209901.000			11.781			-3.927
210001.000			11.782			-3.927
210102.000			11.782			-3.927
210200.000			11.783			-3.928
210300.000			11.781			-3.927
210401.000			11.781			-3.927
210500.000			11.782			-3.927
210600.000			11.781			-3.927
210701.000			11.781			-3.927
210800.000			11.782			-3.927
210901.000			11.781			-3.927
211002.000			11.782			-3.927
211100.000			11.781			-3.927
211200.000			11.782			-3.927
211301.000			11.781			-3.927
211400.000			11.782			-3.927
211500.000			11.781			-3.927
211601.000			11.781			-3.927
211700.000			11.780			-3.927
211801.000			11.780			-3.927
211902.000			11.780			-3.927
212000.000			11.781			-3.927
212100.000			11.781			-3.927
212200.000			11.780			-3.927
212300.000			11.780			-3.927
212401.000			11.780			-3.927
212500.000			11.780			-3.927
212600.000			11.780			-3.927
212702.000			11.781			-3.927
212801.000			11.780			-3.927
212900.000			11.781			-3.927
213001.000			11.780			-3.927
213100.000			11.780			-3.927
213200.000			11.780			-3.927
213301.000			11.779			-3.926
213400.000			11.779			-3.926
213500.000			11.780			-3.927
213602.000			11.778			-3.926
213701.000			11.779			-3.926
213800.000			11.779			-3.926
213901.000			11.778			-3.926
214000.000			11.779			-3.926
214100.000			11.779			-3.926
214201.000			11.779			-3.926
214300.000			11.780			-3.927
214400.000			11.779			-3.926
214501.000			11.780			-3.927
214601.000			11.780			-3.927
214701.000			11.780			-3.927
214801.000			11.779			-3.926
214900.000			11.779			-3.926
215000.000			11.779			-3.926
215101.000			11.778			-3.926
215200.000			11.779			-3.926
215300.000			11.779			-3.926
215400.000			11.779			-3.926
215501.000			11.779			-3.926
215602.000			11.777			-3.926
215701.000			11.777			-3.926
215800.000			11.778			-3.926
215901.000			11.779			-3.926
216000.000			11.779			-3.926
216100.000			11.778			-3.926
216201.000			11.778			-3.926
216300.000			11.778			-3.926
216400.000			11.778			-3.926
216502.000			11.777			-3.926
216601.000			11.778			-3.926
216700.000			11.778			-3.926
216801.000			11.778			-3.926
216900.000			11.778			-3.926
217000.000			11.777			-3.926
217101.000			11.777			-3.926
217200.000			11.776			-3.925
217300.000			11.777			-3.926
217402.000			11.778			-3.926
217501.000			11.777			-3.926
217601.000			11.776			-3.925
217701.000			11.777			-3.926
217800.000			11.777			-3.926
217900.000			11.777			-3.926
218001.000			11.776			-3.925
218100.000			11.776			-3.925
218200.000			11.776			-3.925
218301.000			11.777			-3.926
218401.000			11.776			-3.925
218502.000			11.777			-3.926
218601.000			11.776			-3.925
218700.000			11.776			-3.925
218801.000			11.776			-3.925
218900.000			11.776			-3.925
219000.000			11.776			-3.925
219101.000			11.776			-3.925
219200.000			11.776			-3.925
219300.000			11.776			-3.925
219402.000			11.775			-3.925
219501.000			11.775			-3.925
219600.000			11.775			-3.925
219701.000			11.775			-3.925
219800.000			11.776			-3.925
219900.000			11.776			-3.925
220001.000			11.776			-3.925
220100.000			11.775			-3.925
220200.000			11.776			-3.925
220302.000			11.775			-3.925
220401.000			11.774			-3.925
220500.000			11.775			-3.925
220601.000			11.775			-3.925
220700.000			11.775			-3.925
220800.000			11.775			-3.925
220901.000			11.775			-3.925
221000.000			11.775			-3.925
221100.000			11.773			-3.924
221202.000			11.774			-3.925
221301.000			11.775			-3.925
221400.000			11.774			-3.925
221501.000			11.774			-3.925
221600.000			11.775			-3.925
221700.000			11.775			-3.925
221800.000			11.775			-3.925
221900.000			11.774			-3.925
222001.000			11.775			-3.925
222101.000			11.775			-3.925
222201.000			11.774			-3.925
222302.000			11.774			-3.925
222400.000			11.773			-3.924
222500.000			11.773			-3.924
222601.000			11.773			-3.924
222700.000			11.773			-3.924
222800.000			11.773			-3.924
222901.000			11.773			-3.924
223001.000			11.774			-3.925
223101.000			11.773			-3.924
223202.000			11.773			-3.924
223300.000			11.773			-3.924
223400.000			11.773			-3.924
223501.000			11.772			-3.924
223600.000			11.773			-3.924
223700.000			11.773			-3.924
223801.000			11.772			-3.924
223900.000			11.772			-3.924
224001.000			11.772			-3.924
224102.000			11.773			-3.924
224200.000			11.773			-3.924
224300.000			11.773			-3.924
224401.000			11.772			-3.924
224500.000			11.772			-3.924
224600.000			11.773			-3.924
224701.000			11.772			-3.924
224800.000			11.772			-3.924
224902.000			11.772			-3.924
225001.000			11.772			-3.924
225100.000			11.771			-3.924
225201.000			11.771			-3.924
225300.000			11.772			-3.924
225400.000			11.772			-3.924
225501.000			11.771			-3.924
225600.000			11.772			-3.924
225700.000			11.772			-3.924
225802.000			11.772			-3.924
225901.000			11.771			-3.924
226001.000			11.772			-3.924
226101.000			11.772			-3.924
226200.000			11.772			-3.924
226300.000			11.773			-3.924
226401.000			11.772			-3.924
226500.000			11.771			-3.924
226600.000			11.771			-3.924
226701.000			11.771			-3.924
226801.000			11.772			-3.924
226901.000			11.771			-3.924
227001.000			11.770			-3.923
227100.000			11.771			-3.924
227200.000			11.771			-3.924
227301.000			11.772			-3.924
227400.000			11.772			-3.924
227500.000			11.771			-3.924
227601.000			11.771			-3.924
227701.000			11.770			-3.923
227801.000			11.770			-3.923
227902.000			11.770			-3.923
228000.000			11.770			-3.923
228100.000			11.769			-3.923
228200.000			11.769			-3.923
228300.000			11.771			-3.924
228401.000			11.770			-3.923
228500.000			11.770			-3.923
228600.000			11.769			-3.923
228702.000			11.769			-3.923
228801.000			11.769			-3.923
228900.000			11.769			-3.923
229001.000			11.770			-3.923
229100.000			11.770			-3.923
229200.000			11.770			-3.923
229301.000			11.769			-3.923
229400.000			11.769			-3.923
229500.000			11.769			-3.923
229601.000			11.769			-3.923
229701.000			11.769			-3.923
229801.000			11.771			-3.924
229901.000			11.770			-3.923
230000.000			11.768			-3.923
230100.000			11.768			-3.923
230201.000			11.768			-3.923
230300.000			11.768			-3.923
230400.000			11.769			-3.923
230501.000			11.767			-3.922
230601.000			11.768			-3.923
230701.000			11.770			-3.923
230801.000			11.769			-3.923
230900.000			11.769			-3.923
231000.000			11.768			-3.923
231101.000			11.769			-3.923
231200.000			11.768			-3.923
231300.000			11.769			-3.923
231400.000			11.768			-3.923
231500.000			11.768			-3.923
231602.000			11.768			-3.923
231701.000			11.768			-3.923
231800.000			11.768			-3.923
231901.000			11.767			-3.922
232000.000			11.767			-3.922
232100.000			11.768			-3.923
232201.000			11.768			-3.923
232300.000			11.767			-3.922
232400.000			11.767			-3.922
232502.000			11.767			-3.922
232601.000			11.767			-3.922
232700.000			11.769			-3.923
232801.000			11.768			-3.923
232900.000			11.766			-3.922
233000.000			11.766			-3.922
233101.000			11.767			-3.922
233200.000			11.767			-3.922
233300.000			11.767			-3.922
233402.000			11.767			-3.922
233501.000			11.767			-3.922
233601.000			11.768			-3.923
233701.000			11.768			-3.923
233800.000			11.767			-3.922
233900.000			11.767			-3.922
234001.000			11.767			-3.922
234100.000			11.767			-3.922
234200.000			11.766			-3.922
234301.000			11.765			-3.922
234401.000			11.765			-3.922
234502.000			11.765			-3.922
234600.000			11.766			-3.922
234700.000			11.766			-3.922
234801.000			11.766			-3.922
234900.000			11.766			-3.922
235000.000			11.766			-3.922
235101.000			11.767			-3.922
235200.000			11.766			-3.922
235301.000			11.765			-3.922
235402.000			11.765			-3.922
235501.000			11.765			-3.922
235600.000			11.765			-3.922
235701.000			11.765			-3.922
235800.000			11.766			-3.922
235900.000			11.765			-3.922
236001.000			11.765			-3.922
236100.000			11.765			-3.922
236200.000			11.765			-3.922
236302.000			11.765			-3.922
236401.000			11.764			-3.921
236500.000			11.765			-3.922
236601.000			11.764			-3.921
236700.000			11.764			-3.921
236800.000			11.765			-3.922
236901.000			11.764			-3.921
237000.000			11.764			-3.921
237100.000			11.764			-3.921
237202.000			11.764			-3.921
237301.000			11.764			-3.921
237400.000			11.764			-3.921
237501.000			11.764			-3.921
237600.000			11.763			-3.921
237700.000			11.763			-3.921
237800.000			11.764			-3.921
237900.000			11.764			-3.921
238001.000			11.763			-3.921
238100.000			11.763			-3.921
238201.000			11.763			-3.921
238302.000			11.763			-3.921
238400.000			11.763			-3.921
238500.000			11.764			-3.921
238601.000			11.765			-3.922
238700.000			11.765			-3.922
238800.000			11.764			-3.921
238901.000			11.763			-3.921
239000.000			11.762			-3.921
239101.000			11.763			-3.921
239202.000			11.764			-3.921
239301.000			11.763			-3.921
239400.000			11.763			-3.921
239501.000			11.764			-3.921
239600.000			11.763			-3.921
239700.000			11.763			-3.921
239801.000			11.763			-3.921
239900.000			11.763			-3.921
240000.000			11.763			-3.921
240102.000			11.764			-3.921
240201.000			11.762			-3.921
240300.000			11.762			-3.921
240401.000			11.762			-3.921
240500.000			11.761			-3.920
240600.000			11.762			-3.921
240701.000			11.762			-3.921
240800.000			11.763			-3.921
240900.000			11.763			-3.921
241002.000			11.762			-3.921
241101.000			11.762			-3.921
241201.000			11.762			-3.921
241300.000			11.762			-3.921
241400.000			11.761			-3.920
241501.000			11.762			-3.921
241600.000			11.762			-3.921
241700.000			11.761			-3.920
241801.000			11.761			-3.920
241901.000			11.761			-3.920
242001.000			11.761			-3.920
242101.000			11.761			-3.920
242200.000			11.761			-3.920
242300.000			11.761			-3.920
242401.000			11.760			-3.920
242500.000			11.761			-3.920
242600.000			11.762			-3.921
242701.000			11.762			-3.921
242801.000			11.761			-3.920
242901.000			11.761			-3.920
243001.000			11.761			-3.920
243100.000			11.761			-3.920
243200.000			11.761			-3.920
243301.000			11.761			-3.920
243400.000			11.762			-3.921
243500.000			11.761			-3.920
243601.000			11.761			-3.920
243701.000			11.760			-3.920
243801.000			11.761			-3.920
243901.000			11.761			-3.920
244000.000			11.761			-3.920
244100.000			11.761			-3.920
244200.000			11.761			-3.920
244300.000			11.761			-3.920
244401.000			11.760			-3.920
244500.000			11.760			-3.920
244601.000			11.761			-3.920
244702.000			11.760			-3.920
244800.000			11.760			-3.920
244900.000			11.760			-3.920
245001.000			11.760			-3.920
245100.000			11.760			-3.920
245200.000			11.761			-3.920
245301.000			11.762			-3.921
245400.000			11.760			-3.920
245501.000			11.759			-3.920
245602.000			11.760			-3.920
245701.000			11.759			-3.920
245800.000			11.760			-3.920
245901.000			11.760			-3.920
246000.000			11.760			-3.920
246100.000			11.759			-3.920
246201.000			11.759			-3.920
246300.000			11.759			-3.920
246400.000			11.758			-3.919
246502.000			11.760			-3.920
246601.000			11.759			-3.920
246701.000			11.759			-3.920
246801.000			11.759			-3.920
246900.000			11.759			-3.920
247000.000			11.759			-3.920
247101.000			11.759			-3.920
247200.000			11.758			-3.919
247300.000			11.759			-3.920
247400.000			11.758			-3.919
247501.000			11.759			-3.920
247602.000			11.758			-3.919
247701.000			11.759			-3.920
247800.000			11.759			-3.920
247901.000			11.758			-3.919
248000.000			11.758			-3.919
248100.000			11.759			-3.920
248201.000			11.759			-3.920
248300.000			11.758			-3.919
248400.000			11.758			-3.919
248502.000			11.758			-3.919
248601.000			11.758			-3.919
248701.000			11.758			-3.919
248801.000			11.759			-3.920
248900.000			11.758			-3.919
249000.000			11.757			-3.919
249101.000			11.758			-3.919
249200.000			11.759			-3.920
249300.000			11.758			-3.919
249401.000			11.758			-3.919
249501.000			11.757			-3.919
249601.000			11.757			-3.919
249701.000			11.757			-3.919
249800.000			11.757			-3.919
249900.000			11.757			-3.919
250001.000			11.758			-3.919
250100.000			11.757			-3.919
250200.000			11.757			-3.919
250301.000			11.756			-3.919
250401.000			11.756			-3.919
250502.000			11.757			-3.919
250601.000			11.757			-3.919
250700.000			11.757			-3.919
250801.000			11.757			-3.919
250900.000			11.757			-3.919
251000.000			11.756			-3.919
251101.000			11.756			-3.919
251200.000			11.756			-3.919
251300.000			11.757			-3.919
251402.000			11.757			-3.919
251501.000			11.757			-3.919
251600.000			11.757			-3.919
251701.000			11.757			-3.919
251800.000			11.757			-3.919
251900.000			11.757			-3.919
252001.000			11.756			-3.919
252100.000			11.756			-3.919
252200.000			11.757			-3.919
252302.000			11.757			-3.919
252401.000			11.756			-3.919
252500.000			11.756			-3.919
252601.000			11.756			-3.919
252700.000			11.756			-3.919
252800.000			11.756			-3.919
252901.000			11.756			-3.919
253000.000			11.756			-3.919
253100.000			11.756			-3.919
253202.000			11.756			-3.919
253301.000			11.757			-3.919
253401.000			11.756			-3.919
253501.000			11.756			-3.919
253600.000			11.757			-3.919
253700.000			11.756			-3.919
253800.000			11.755			-3.918
253900.000			11.755			-3.918
254001.000			11.755			-3.918
254100.000			11.755			-3.918
254201.000			11.755			-3.918
254302.000			11.755			-3.918
254400.000			11.755			-3.918
254500.000			11.756			-3.919
254601.000			11.754			-3.918
254700.000			11.754			-3.918
254800.000			11.755			-3.918
254901.000			11.755			-3.918
255000.000			11.756			-3.919
255101.000			11.756			-3.919
255202.000			11.757			-3.919
255301.000			11.755			-3.918
255400.000			11.754			-3.918
255501.000			11.754			-3.918
255600.000			11.754			-3.918
255700.000			11.754			-3.918
255801.000			11.754			-3.918
255900.000			11.755			-3.918
256000.000			11.755			-3.918
256102.000			11.755			-3.918
256201.000			11.754			-3.918
256301.000			11.754			-3.918
256401.000			11.754			-3.918
256500.000			11.755			-3.918
256600.000			11.755			-3.918
256701.000			11.755			-3.918
256800.000			11.754			-3.918
256900.000			11.754			-3.918
257000.000			11.754			-3.918
257101.000			11.754			-3.918
257202.000			11.753			-3.918
257300.000			11.754			-3.918
257400.000			11.755			-3.918
257501.000			11.754			-3.918
257600.000			11.754			-3.918
257700.000			11.754			-3.918
257801.000			11.753			-3.918
257900.000			11.754			-3.918
258001.000			11.753			-3.918
258102.000			11.753			-3.918
258201.000			11.753			-3.918
258300.000			11.754			-3.918
258401.000			11.754			-3.918
258500.000			11.753			-3.918
258600.000			11.753			-3.918
258701.000			11.753			-3.918
258800.000			11.753			-3.918
258900.000			11.753			-3.918
259002.000			11.753			-3.918
259101.000			11.754			-3.918
259200.000			11.753			-3.918
259301.000			11.753			-3.918
259400.000			11.753			-3.918
259500.000			11.753			-3.918
259601.000			11.752			-3.917
259700.000			11.752			-3.917
259800.000			11.752			-3.917
259902.000			11.752			-3.917
260001.000			11.752			-3.917
260102.000			11.752			-3.917
260200.000			11.752			-3.917
260300.000			11.751			-3.917
260401.000			11.751			-3.917
260500.000			11.752			-3.917
260600.000			11.752			-3.917
260701.000			11.751			-3.917
260801.000			11.750			-3.917
260901.000			11.750			-3.917
261002.000			11.751			-3.917
261100.000			11.751			-3.917
261200.000			11.752			-3.917
261301.000			11.753			-3.918
261400.000			11.752			-3.917
261500.000			11.752			-3.917
261601.000			11.752			-3.917
261700.000			11.751			-3.917
261801.000			11.750			-3.917
261902.000			11.752			-3.917
262000.000			11.752			-3.917
262100.000			11.752			-3.917
262201.000			11.751			-3.917
262300.000			11.751			-3.917
262400.000			11.751			-3.917
262501.000			11.750			-3.917
262600.000			11.750			-3.917
262701.000			11.750			-3.917
262802.000			11.750			-3.917
262901.000			11.750			-3.917
263000.000			11.751			-3.917
263101.000			11.751			-3.917
263200.000			11.750			-3.917
263300.000			11.749			-3.916
263400.000			11.749			-3.916
263500.000			11.750			-3.917
263601.000			11.750			-3.917
263701.000			11.749			-3.916
263801.000			11.749			-3.916
263901.000			11.750			-3.917
264000.000			11.750			-3.917
264100.000			11.749			-3.916
264201.000			11.749			-3.916
264300.000			11.750			-3.917
264400.000			11.749			-3.916
264501.000			11.749			-3.916
264601.000			11.749			-3.916
264701.000			11.749			-3.916
264802.000			11.750			-3.917
264900.000			11.749			-3.916
265000.000			11.749			-3.916
265101.000			11.749			-3.916
265200.000			11.748			-3.916
265300.000			11.749			-3.916
265401.000			11.750			-3.917
265500.000			11.750			-3.917
265601.000			11.749			-3.916
265702.000			11.750			-3.917
265800.000			11.749			-3.916
265900.000			11.749			-3.916
266001.000			11.748			-3.916
266100.000			11.748			-3.916
266200.000			11.749			-3.916
266301.000			11.749			-3.916
266400.000			11.748			-3.916
266502.000			11.748			-3.916
266601.000			11.748			-3.916
266701.000			11.749			-3.916
266801.000			11.749			-3.916
266900.000			11.749			-3.916
267000.000			11.749			-3.916
267101.000			11.749			-3.916
267200.000			11.749			-3.916
267300.000			11.748			-3.916
267401.000			11.747			-3.916
267501.000			11.747			-3.916
267601.000			11.748			-3.916
267702.000			11.748			-3.916
267800.000			11.748			-3.916
267900.000			11.748			-3.916
268001.000			11.747			-3.916
268100.000			11.747			-3.916
268200.000			11.747			-3.916
268301.000			11.747			-3.916
268400.000			11.747			-3.916
268501.000			11.747			-3.916
268602.000			11.747			-3.916
268701.000			11.747			-3.916
268800.000			11.746			-3.915
268901.000			11.747			-3.916
269000.000			11.748			-3.916
269100.000			11.747			-3.916
269201.000			11.746			-3.915
269300.000			11.747			-3.916
269400.000			11.747			-3.916
269502.000			11.746			-3.915
269601.000			11.746			-3.915
269700.000			11.746			-3.915
269800.000			11.747			-3.916
269900.000			11.747			-3.916
270001.000			11.746			-3.915
270100.000			11.747			-3.916
270200.000			11.746			-3.915
270301.000			11.746			-3.915
270401.000			11.745			-3.915
270501.000			11.746			-3.915
270602.000			11.746			-3.915
270700.000			11.747			-3.916
270800.000			11.746			-3.915
270901.000			11.746			-3.915
271000.000			11.746			-3.915
271100.000			11.745			-3.915
271201.000			11.744			-3.915
271300.000			11.745			-3.915
271401.000			11.745			-3.915
271502.000			11.746			-3.915
271600.000			11.746			-3.915
271700.000			11.746			-3.915
271801.000			11.745			-3.915
271900.000			11.745			-3.915
272000.000			11.745			-3.915
272101.000			11.745			-3.915
272200.000			11.745			-3.915
272301.000			11.745			-3.915
272402.000			11.745			-3.915
272501.000			11.745			-3.915
272600.000			11.745			-3.915
272701.000			11.745			-3.915
272800.000			11.744			-3.915
272900.000			11.744			-3.915
273000.000			11.743			-3.914
273100.000			11.744			-3.915
273202.000			11.743			-3.914
273301.000			11.744			-3.915
273401.000			11.745			-3.915
273501.000			11.744			-3.915
273600.000			11.744			-3.915
273700.000			11.744			-3.915
273801.000			11.745			-3.915
273900.000			11.745			-3.915
274000.000			11.744			-3.915
274101.000			11.744			-3.915
274201.000			11.744			-3.915
274301.000			11.745			-3.915
274401.000			11.744			-3.915
274500.000			11.744			-3.915
274600.000			11.744			-3.915
274701.000			11.745			-3.915
274800.000			11.745			-3.915
274900.000			11.743			-3.914
275001.000			11.743			-3.914
275101.000			11.744			-3.915
275201.000			11.744			-3.915
275301.000			11.744			-3.915
275400.000			11.744			-3.915
275500.000			11.743			-3.914
275601.000			11.742			-3.914
275700.000			11.743			-3.914
275800.000			11.742			-3.914
275901.000			11.742			-3.914
276001.000			11.743			-3.914
276102.000			11.743			-3.914
276201.000			11.743			-3.914
276300.000			11.743			-3.914
276401.000			11.743			-3.914
276500.000			11.743			-3.914
276600.000			11.742			-3.914
276701.000			11.741			-3.914
276800.000			11.741			-3.914
276900.000			11.741			-3.914
277002.000			11.741			-3.914
277101.000			11.742			-3.914
277200.000			11.742			-3.914
277301.000			11.743			-3.914
277400.000			11.743			-3.914
277500.000			11.743			-3.914
277601.000			11.742			-3.914
277700.000			11.741			-3.914
277800.000			11.742			-3.914
277902.000			11.742			-3.914
278001.000			11.743			-3.914
278100.000			11.742			-3.914
278201.000			11.742			-3.914
278300.000			11.741			-3.914
278400.000			11.741			-3.914
278501.000			11.742			-3.914
278600.000			11.741			-3.914
278700.000			11.741			-3.914
278802.000			11.741			-3.914
278901.000			11.742			-3.914
279001.000			11.742			-3.914
279101.000			11.741			-3.914
279200.000			11.740			-3.913
279300.000			11.741			-3.914
279400.000			11.742			-3.914
279500.000			11.741			-3.914
279601.000			11.741			-3.914
279700.000			11.742			-3.914
279801.000			11.741			-3.914
279902.000			11.741			-3.914
280001.000			11.742			-3.914
280100.000			11.741			-3.914
280201.000			11.741			-3.914
280300.000			11.740			-3.913
280400.000			11.740			-3.913
280501.000			11.741			-3.914
280600.000			11.740			-3.913
280700.000			11.741			-3.914
280802.000			11.741			-3.914
280901.000			11.741			-3.914
281000.000			11.741			-3.914
281101.000			11.740			-3.913
281200.000			11.741			-3.914
281300.000			11.740			-3.913
281401.000			11.741			-3.914
281500.000			11.741			-3.914
281600.000			11.740			-3.913
281702.000			11.740			-3.913
281801.000			11.739			-3.913
281900.000			11.740			-3.913
282001.000			11.740			-3.913
282100.000			11.740			-3.913
282200.000			11.740			-3.913
282301.000			11.741			-3.914
282400.000			11.740			-3.913
282500.000			11.740			-3.913
282602.000			11.740			-3.913
282701.000			11.740			-3.913
282802.000			11.740			-3.913
282900.000			11.739			-3.913
283000.000			11.739			-3.913
283101.000			11.740			-3.913
283200.000			11.740			-3.913
283300.000			11.740			-3.913
283401.000			11.741			-3.914
283500.000			11.740			-3.913
283601.000			11.739			-3.913
283702.000			11.739			-3.913
283800.000			11.739			-3.913
283900.000			11.739			-3.913
284001.000			11.739			-3.913
284100.000			11.739			-3.913
284200.000			11.739			-3.913
284301.000			11.739			-3.913
284400.000			11.739			-3.913
284501.000			11.740			-3.913
284602.000			11.739			-3.913
284701.000			11.739			-3.913
284800.000			11.739			-3.913
284901.000			11.739			-3.913
285000.000			11.739			-3.913
285100.000			11.739			-3.913
285201.000			11.739			-3.913
285300.000			11.739			-3.913
285400.000			11.738			-3.913
285502.000			11.738			-3.913
285601.000			11.738			-3.913
285700.000			11.738			-3.913
285800.000			11.739			-3.913
285900.000			11.740			-3.913
286001.000			11.738			-3.913
286100.000			11.738			-3.913
286200.000			11.738			-3.913
286301.000			11.738			-3.913
286401.000			11.738			-3.913
286501.000			11.738			-3.913
286602.000			11.738			-3.913
286700.000			11.738			-3.913
286800.000			11.737			-3.912
286901.000			11.738			-3.913
287000.000			11.738			-3.913
287100.000			11.739			-3.913
287201.000			11.739			-3.913
287300.000			11.738			-3.913
287401.000			11.738			-3.913
287502.000			11.737			-3.912
287601.000			11.737			-3.912
287700.000			11.738			-3.913
287801.000			11.739			-3.913
287900.000			11.740			-3.913
288000.000			11.739			-3.913
288101.000			11.738			-3.913
288200.000			11.738			-3.913
288300.000			11.738			-3.913
288402.000			11.738			-3.913
288501.000			11.737			-3.912
288600.000			11.737			-3.912
288701.000			11.737			-3.912
288800.000			11.738			-3.913
288900.000			11.737			-3.912
289000.000			11.737			-3.912
289100.000			11.738			-3.913
289201.000			11.738			-3.913
289300.000			11.737			-3.912
289401.000			11.737			-3.912
289502.000			11.736			-3.912
289600.000			11.737			-3.912
289700.000			11.737			-3.912
289801.000			11.737			-3.912
289900.000			11.737			-3.912
290000.000			11.735			-3.912
290101.000			11.735			-3.912
290200.000			11.736			-3.912
290300.000			11.736			-3.912
290402.000			11.736			-3.912
290501.000			11.736			-3.912
290600.000			11.736			-3.912
290701.000			11.736			-3.912
290800.000			11.736			-3.912
290900.000			11.735			-3.912
291001.000			11.735			-3.912
291100.000			11.736			-3.912
291200.000			11.736			-3.912
291302.000			11.735			-3.912
291401.000			11.736			-3.912
291500.000			11.736			-3.912
291601.000			11.736			-3.912
291700.000			11.736			-3.912
291800.000			11.736			-3.912
291901.000			11.735			-3.912
292000.000			11.736			-3.912
292100.000			11.736			-3.912
292202.000			11.735			-3.912
292301.000			11.734			-3.911
292401.000			11.735			-3.912
292500.000			11.736			-3.912
292600.000			11.735			-3.912
292701.000			11.735			-3.912
292800.000			11.736			-3.912
292900.000			11.735			-3.912
293001.000			11.734			-3.911
293101.000			11.734			-3.911
293201.000			11.734			-3.911
293302.000			11.734			-3.911
293400.000			11.734			-3.911
293500.000			11.735			-3.912
293601.000			11.736			-3.912
293700.000			11.735			-3.912
293800.000			11.735			-3.912
293901.000			11.734			-3.911
294000.000			11.735			-3.912
294101.000			11.735			-3.912
294202.000			11.733			-3.911
294300.000			11.733			-3.911
294400.000			11.734			-3.911
294501.000			11.734			-3.911
294600.000			11.735			-3.912
294700.000			11.734			-3.911
294801.000			11.734			-3.911
294900.000			11.734			-3.911
295001.000			11.735			-3.912
295102.000			11.734			-3.911
295201.000			11.734			-3.911
295300.000			11.735			-3.912
295400.000			11.734			-3.911
295500.000			11.735			-3.912
295601.000			11.734			-3.911
295700.000			11.733			-3.911
295800.000			11.733			-3.911
295901.000			11.734			-3.911
296001.000			11.734			-3.911
296101.000			11.734			-3.911
296201.000			11.733			-3.911
296300.000			11.733			-3.911
296400.000			11.733			-3.911
296501.000			11.733			-3.911
296600.000			11.733			-3.911
296700.000			11.732			-3.911
296801.000			11.732			-3.911
296901.000			11.733			-3.911
297001.000			11.733			-3.911
297102.000			11.733			-3.911
297200.000			11.732			-3.911
297300.000			11.732			-3.911
297401.000			11.731			-3.910
297500.000			11.732			-3.911
297600.000			11.733			-3.911
297701.000			11.733			-3.911
297800.000			11.732			-3.911
297901.000			11.732			-3.911
298002.000			11.733			-3.911
298101.000			11.732			-3.911
298200.000			11.732			-3.911
298301.000			11.732			-3.911
298400.000			11.732			-3.911
298500.000			11.732			-3.911
298600.000			11.732			-3.911
298700.000			11.732			-3.911
298801.000			11.732			-3.911
298901.000			11.733			-3.911
299001.000			11.733			-3.911
299101.000			11.733			-3.911
299200.000			11.731			-3.910
299300.000			11.731			-3.910
299401.000			11.732			-3.911
299500.000			11.732			-3.911
299600.000			11.732			-3.911
299701.000			11.732			-3.911
299801.000			11.732			-3.911
299901.000			11.732			-3.911
