# Acquired on 20/12/2023 12:02:47 
# SPIDER: Creep_5mm_07714532B-1
# CREEP MEASUREMENT

# time [ms]		force [N]		stiffness [N/mm]
0.000			-16.756			-3.351
100.000			-19.687			-3.937
200.000			-19.950			-3.990
302.000			-19.865			-3.973
401.000			-19.774			-3.955
500.000			-19.705			-3.941
601.000			-19.646			-3.929
700.000			-19.595			-3.919
800.000			-19.514			-3.903
900.000			-19.480			-3.896
1000.000			-19.447			-3.889
1102.000			-19.419			-3.884
1201.000			-19.391			-3.878
1300.000			-19.366			-3.873
1401.000			-19.342			-3.868
1500.000			-19.320			-3.864
1600.000			-19.279			-3.856
1701.000			-19.261			-3.852
1801.000			-19.244			-3.849
1901.000			-19.227			-3.845
2002.000			-19.210			-3.842
2100.000			-19.195			-3.839
2200.000			-19.181			-3.836
2301.000			-19.152			-3.830
2400.000			-19.139			-3.828
2500.000			-19.127			-3.825
2602.000			-19.115			-3.823
2701.000			-19.104			-3.821
2800.000			-19.092			-3.818
2901.000			-19.080			-3.816
3000.000			-19.059			-3.812
3100.000			-19.049			-3.810
3201.000			-19.039			-3.808
3300.000			-19.029			-3.806
3401.000			-19.020			-3.804
3502.000			-19.012			-3.802
3600.000			-19.004			-3.801
3700.000			-18.986			-3.797
3801.000			-18.978			-3.796
3900.000			-18.969			-3.794
4000.000			-18.961			-3.792
4102.000			-18.954			-3.791
4201.000			-18.947			-3.789
4302.000			-18.940			-3.788
4400.000			-18.933			-3.787
4500.000			-18.918			-3.784
4601.000			-18.912			-3.782
4700.000			-18.905			-3.781
4800.000			-18.899			-3.780
4902.000			-18.892			-3.778
5001.000			-18.887			-3.777
5100.000			-18.880			-3.776
5201.000			-18.868			-3.774
5300.000			-18.862			-3.772
5400.000			-18.857			-3.771
5501.000			-18.851			-3.770
5600.000			-18.845			-3.769
5701.000			-18.839			-3.768
5802.000			-18.834			-3.767
5900.000			-18.825			-3.765
6000.000			-18.819			-3.764
6101.000			-18.813			-3.763
6200.000			-18.808			-3.762
6300.000			-18.802			-3.760
6401.000			-18.798			-3.760
6501.000			-18.794			-3.759
6601.000			-18.790			-3.758
6701.000			-18.780			-3.756
6800.000			-18.776			-3.755
6900.000			-18.772			-3.754
7001.000			-18.767			-3.753
7100.000			-18.762			-3.752
7200.000			-18.758			-3.752
7302.000			-18.754			-3.751
7401.000			-18.744			-3.749
7501.000			-18.740			-3.748
7600.000			-18.737			-3.747
7700.000			-18.734			-3.747
7801.000			-18.731			-3.746
7900.000			-18.725			-3.745
8000.000			-18.720			-3.744
8102.000			-18.714			-3.743
8201.000			-18.710			-3.742
8300.000			-18.705			-3.741
8401.000			-18.702			-3.740
8500.000			-18.699			-3.740
8600.000			-18.695			-3.739
8701.000			-18.692			-3.738
8800.000			-18.688			-3.738
8901.000			-18.682			-3.736
9002.000			-18.679			-3.736
9100.000			-18.674			-3.735
9200.000			-18.671			-3.734
9301.000			-18.667			-3.733
9400.000			-18.666			-3.733
9500.000			-18.662			-3.732
9601.000			-18.655			-3.731
9701.000			-18.651			-3.730
9801.000			-18.649			-3.730
9901.000			-18.646			-3.729
10000.000			-18.643			-3.729
10100.000			-18.640			-3.728
10201.000			-18.637			-3.727
10300.000			-18.633			-3.727
10400.000			-18.627			-3.725
10502.000			-18.624			-3.725
10601.000			-18.622			-3.724
10701.000			-18.619			-3.724
10800.000			-18.616			-3.723
10900.000			-18.613			-3.723
11001.000			-18.610			-3.722
11100.000			-18.606			-3.721
11201.000			-18.603			-3.721
11302.000			-18.600			-3.720
11400.000			-18.597			-3.719
11500.000			-18.595			-3.719
11601.000			-18.593			-3.719
11700.000			-18.590			-3.718
11800.000			-18.585			-3.717
11901.000			-18.581			-3.716
12001.000			-18.578			-3.716
12101.000			-18.576			-3.715
12201.000			-18.574			-3.715
12300.000			-18.571			-3.714
12400.000			-18.569			-3.714
12501.000			-18.565			-3.713
12600.000			-18.563			-3.713
12700.000			-18.560			-3.712
12802.000			-18.558			-3.712
12901.000			-18.555			-3.711
13001.000			-18.552			-3.710
13101.000			-18.550			-3.710
13200.000			-18.548			-3.710
13300.000			-18.544			-3.709
13401.000			-18.541			-3.708
13500.000			-18.538			-3.708
13600.000			-18.536			-3.707
13702.000			-18.534			-3.707
13801.000			-18.531			-3.706
13901.000			-18.529			-3.706
14000.000			-18.525			-3.705
14100.000			-18.523			-3.705
14201.000			-18.521			-3.704
14300.000			-18.519			-3.704
14400.000			-18.516			-3.703
14502.000			-18.514			-3.703
14601.000			-18.513			-3.703
14700.000			-18.512			-3.702
14801.000			-18.508			-3.702
14900.000			-18.505			-3.701
15000.000			-18.502			-3.700
15101.000			-18.501			-3.700
15200.000			-18.500			-3.700
15301.000			-18.498			-3.700
15402.000			-18.495			-3.699
15500.000			-18.491			-3.698
15600.000			-18.488			-3.698
15701.000			-18.486			-3.697
15800.000			-18.483			-3.697
15900.000			-18.482			-3.696
16001.000			-18.481			-3.696
16101.000			-18.479			-3.696
16201.000			-18.476			-3.695
16301.000			-18.474			-3.695
16400.000			-18.471			-3.694
16500.000			-18.470			-3.694
16601.000			-18.468			-3.694
16700.000			-18.466			-3.693
16800.000			-18.465			-3.693
16902.000			-18.462			-3.692
17001.000			-18.459			-3.692
17101.000			-18.458			-3.692
17200.000			-18.455			-3.691
17300.000			-18.453			-3.691
17401.000			-18.452			-3.690
17500.000			-18.450			-3.690
17600.000			-18.449			-3.690
17702.000			-18.446			-3.689
17801.000			-18.444			-3.689
17900.000			-18.442			-3.688
18001.000			-18.440			-3.688
18100.000			-18.438			-3.688
18200.000			-18.437			-3.687
18301.000			-18.435			-3.687
18400.000			-18.431			-3.686
18501.000			-18.430			-3.686
18602.000			-18.429			-3.686
18700.000			-18.427			-3.685
18800.000			-18.425			-3.685
18901.000			-18.423			-3.685
19000.000			-18.421			-3.684
19100.000			-18.421			-3.684
19201.000			-18.418			-3.684
19301.000			-18.416			-3.683
19401.000			-18.415			-3.683
19502.000			-18.413			-3.683
19600.000			-18.411			-3.682
19700.000			-18.409			-3.682
19801.000			-18.408			-3.682
19900.000			-18.405			-3.681
20000.000			-18.403			-3.681
20102.000			-18.401			-3.680
20201.000			-18.400			-3.680
20301.000			-18.399			-3.680
20400.000			-18.397			-3.679
20500.000			-18.396			-3.679
20601.000			-18.392			-3.678
20700.000			-18.391			-3.678
20800.000			-18.389			-3.678
20901.000			-18.388			-3.678
21001.000			-18.387			-3.677
21101.000			-18.385			-3.677
21201.000			-18.384			-3.677
21300.000			-18.383			-3.677
21400.000			-18.380			-3.676
21501.000			-18.379			-3.676
21600.000			-18.377			-3.675
21700.000			-18.376			-3.675
21802.000			-18.374			-3.675
21901.000			-18.372			-3.674
22000.000			-18.372			-3.674
22101.000			-18.369			-3.674
22200.000			-18.367			-3.673
22300.000			-18.365			-3.673
22401.000			-18.364			-3.673
22500.000			-18.363			-3.673
22601.000			-18.362			-3.672
22702.000			-18.360			-3.672
22800.000			-18.357			-3.671
22900.000			-18.356			-3.671
23001.000			-18.356			-3.671
23100.000			-18.355			-3.671
23200.000			-18.352			-3.670
23300.000			-18.350			-3.670
23401.000			-18.350			-3.670
23502.000			-18.348			-3.670
23600.000			-18.346			-3.669
23700.000			-18.344			-3.669
23801.000			-18.343			-3.669
23900.000			-18.342			-3.668
24000.000			-18.341			-3.668
24101.000			-18.340			-3.668
24201.000			-18.338			-3.668
24301.000			-18.335			-3.667
24401.000			-18.334			-3.667
24500.000			-18.334			-3.667
24600.000			-18.333			-3.667
24701.000			-18.331			-3.666
24800.000			-18.329			-3.666
24900.000			-18.327			-3.665
25002.000			-18.327			-3.665
25101.000			-18.325			-3.665
25200.000			-18.323			-3.665
25301.000			-18.322			-3.664
25400.000			-18.321			-3.664
25500.000			-18.320			-3.664
25601.000			-18.318			-3.664
25700.000			-18.316			-3.663
25801.000			-18.315			-3.663
25902.000			-18.314			-3.663
26000.000			-18.312			-3.662
26100.000			-18.310			-3.662
26201.000			-18.310			-3.662
26300.000			-18.309			-3.662
26400.000			-18.308			-3.662
26500.000			-18.305			-3.661
26601.000			-18.304			-3.661
26702.000			-18.304			-3.661
26800.000			-18.303			-3.661
26900.000			-18.301			-3.660
27001.000			-18.299			-3.660
27100.000			-18.298			-3.660
27200.000			-18.298			-3.660
27301.000			-18.296			-3.659
27401.000			-18.294			-3.659
27501.000			-18.292			-3.658
27601.000			-18.292			-3.658
27700.000			-18.290			-3.658
27800.000			-18.290			-3.658
27901.000			-18.289			-3.658
28000.000			-18.287			-3.657
28100.000			-18.285			-3.657
28202.000			-18.284			-3.657
28301.000			-18.284			-3.657
28400.000			-18.283			-3.657
28501.000			-18.281			-3.656
28600.000			-18.280			-3.656
28700.000			-18.279			-3.656
28801.000			-18.277			-3.655
28900.000			-18.276			-3.655
29001.000			-18.275			-3.655
29102.000			-18.273			-3.655
29200.000			-18.273			-3.655
29300.000			-18.272			-3.654
29401.000			-18.270			-3.654
29500.000			-18.269			-3.654
29600.000			-18.268			-3.654
29700.000			-18.266			-3.653
29800.000			-18.266			-3.653
29902.000			-18.264			-3.653
30001.000			-18.264			-3.653
30100.000			-18.262			-3.652
30201.000			-18.261			-3.652
30300.000			-18.259			-3.652
30400.000			-18.259			-3.652
30501.000			-18.258			-3.652
30600.000			-18.257			-3.651
30701.000			-18.256			-3.651
30802.000			-18.255			-3.651
30900.000			-18.253			-3.651
31000.000			-18.252			-3.650
31101.000			-18.250			-3.650
31200.000			-18.250			-3.650
31300.000			-18.249			-3.650
31401.000			-18.248			-3.650
31501.000			-18.247			-3.649
31601.000			-18.246			-3.649
31701.000			-18.244			-3.649
31800.000			-18.243			-3.649
31900.000			-18.243			-3.649
32001.000			-18.242			-3.648
32100.000			-18.241			-3.648
32200.000			-18.240			-3.648
32302.000			-18.238			-3.648
32401.000			-18.236			-3.647
32500.000			-18.235			-3.647
32601.000			-18.234			-3.647
32700.000			-18.233			-3.647
32800.000			-18.233			-3.647
32900.000			-18.233			-3.647
33000.000			-18.231			-3.646
33102.000			-18.229			-3.646
33201.000			-18.228			-3.646
33300.000			-18.226			-3.645
33401.000			-18.226			-3.645
33500.000			-18.226			-3.645
33600.000			-18.225			-3.645
33701.000			-18.223			-3.645
33801.000			-18.222			-3.644
33901.000			-18.221			-3.644
34001.000			-18.220			-3.644
34100.000			-18.219			-3.644
34200.000			-18.218			-3.644
34301.000			-18.217			-3.643
34400.000			-18.217			-3.643
34500.000			-18.217			-3.643
34602.000			-18.214			-3.643
34701.000			-18.213			-3.643
34800.000			-18.213			-3.643
34901.000			-18.211			-3.642
35000.000			-18.211			-3.642
35100.000			-18.210			-3.642
35201.000			-18.208			-3.642
35300.000			-18.207			-3.641
35401.000			-18.207			-3.641
35502.000			-18.206			-3.641
35600.000			-18.205			-3.641
35700.000			-18.203			-3.641
35801.000			-18.203			-3.641
35900.000			-18.201			-3.640
36000.000			-18.200			-3.640
36100.000			-18.200			-3.640
36201.000			-18.199			-3.640
36302.000			-18.198			-3.640
36400.000			-18.197			-3.639
36500.000			-18.196			-3.639
36601.000			-18.195			-3.639
36700.000			-18.194			-3.639
36800.000			-18.193			-3.639
36901.000			-18.192			-3.638
37001.000			-18.191			-3.638
37101.000			-18.191			-3.638
37201.000			-18.190			-3.638
37300.000			-18.189			-3.638
37400.000			-18.188			-3.638
37501.000			-18.186			-3.637
37600.000			-18.186			-3.637
37700.000			-18.185			-3.637
37802.000			-18.184			-3.637
37901.000			-18.182			-3.636
38000.000			-18.181			-3.636
38101.000			-18.181			-3.636
38200.000			-18.180			-3.636
38300.000			-18.179			-3.636
38401.000			-18.179			-3.636
38500.000			-18.179			-3.636
38601.000			-18.177			-3.635
38702.000			-18.175			-3.635
38800.000			-18.175			-3.635
38900.000			-18.173			-3.635
39001.000			-18.173			-3.635
39100.000			-18.172			-3.634
39200.000			-18.171			-3.634
39300.000			-18.170			-3.634
39400.000			-18.169			-3.634
39502.000			-18.169			-3.634
39601.000			-18.168			-3.634
39700.000			-18.167			-3.633
39801.000			-18.166			-3.633
39900.000			-18.165			-3.633
40000.000			-18.165			-3.633
40101.000			-18.164			-3.633
40200.000			-18.163			-3.633
40301.000			-18.163			-3.633
40402.000			-18.162			-3.632
40500.000			-18.160			-3.632
40600.000			-18.160			-3.632
40701.000			-18.159			-3.632
40800.000			-18.158			-3.632
40900.000			-18.158			-3.632
41002.000			-18.157			-3.631
41101.000			-18.156			-3.631
41201.000			-18.154			-3.631
41301.000			-18.153			-3.631
41400.000			-18.152			-3.630
41500.000			-18.152			-3.630
41601.000			-18.151			-3.630
41700.000			-18.150			-3.630
41801.000			-18.150			-3.630
41902.000			-18.148			-3.630
42000.000			-18.149			-3.630
42100.000			-18.148			-3.630
42201.000			-18.146			-3.629
42300.000			-18.145			-3.629
42400.000			-18.145			-3.629
42500.000			-18.144			-3.629
42601.000			-18.144			-3.629
42702.000			-18.141			-3.628
42801.000			-18.141			-3.628
42900.000			-18.140			-3.628
43001.000			-18.140			-3.628
43100.000			-18.139			-3.628
43200.000			-18.139			-3.628
43301.000			-18.137			-3.627
43401.000			-18.136			-3.627
43501.000			-18.135			-3.627
43601.000			-18.134			-3.627
43700.000			-18.134			-3.627
43800.000			-18.133			-3.627
43901.000			-18.133			-3.627
44000.000			-18.132			-3.626
44100.000			-18.132			-3.626
44202.000			-18.130			-3.626
44301.000			-18.130			-3.626
44400.000			-18.129			-3.626
44501.000			-18.128			-3.626
44600.000			-18.127			-3.625
44700.000			-18.126			-3.625
44801.000			-18.127			-3.625
44900.000			-18.125			-3.625
45001.000			-18.124			-3.625
45102.000			-18.125			-3.625
45201.000			-18.123			-3.625
45300.000			-18.122			-3.624
45401.000			-18.122			-3.624
45500.000			-18.121			-3.624
45600.000			-18.119			-3.624
45700.000			-18.119			-3.624
45801.000			-18.119			-3.624
45902.000			-18.116			-3.623
46001.000			-18.115			-3.623
46100.000			-18.116			-3.623
46201.000			-18.116			-3.623
46300.000			-18.115			-3.623
46400.000			-18.113			-3.623
46501.000			-18.112			-3.622
46601.000			-18.112			-3.622
46701.000			-18.111			-3.622
46801.000			-18.110			-3.622
46900.000			-18.108			-3.622
47000.000			-18.108			-3.622
47101.000			-18.108			-3.622
47200.000			-18.106			-3.621
47300.000			-18.106			-3.621
47402.000			-18.105			-3.621
47501.000			-18.105			-3.621
47600.000			-18.105			-3.621
47701.000			-18.104			-3.621
47800.000			-18.103			-3.621
47900.000			-18.101			-3.620
48001.000			-18.100			-3.620
48100.000			-18.101			-3.620
48201.000			-18.100			-3.620
48302.000			-18.100			-3.620
48400.000			-18.099			-3.620
48500.000			-18.097			-3.619
48601.000			-18.096			-3.619
48700.000			-18.095			-3.619
48800.000			-18.095			-3.619
48900.000			-18.094			-3.619
49001.000			-18.094			-3.619
49102.000			-18.093			-3.619
49200.000			-18.093			-3.619
49300.000			-18.092			-3.618
49401.000			-18.092			-3.618
49500.000			-18.091			-3.618
49600.000			-18.090			-3.618
49701.000			-18.088			-3.618
49801.000			-18.087			-3.617
49901.000			-18.088			-3.618
50001.000			-18.087			-3.617
50100.000			-18.087			-3.617
50200.000			-18.085			-3.617
50301.000			-18.085			-3.617
50400.000			-18.084			-3.617
50500.000			-18.084			-3.617
50602.000			-18.084			-3.617
50701.000			-18.083			-3.617
50800.000			-18.081			-3.616
50901.000			-18.080			-3.616
51000.000			-18.079			-3.616
51100.000			-18.080			-3.616
51201.000			-18.079			-3.616
51300.000			-18.079			-3.616
51401.000			-18.078			-3.616
51502.000			-18.077			-3.615
51600.000			-18.076			-3.615
51700.000			-18.075			-3.615
51801.000			-18.075			-3.615
51900.000			-18.073			-3.615
52000.000			-18.074			-3.615
52100.000			-18.073			-3.615
52201.000			-18.071			-3.614
52302.000			-18.070			-3.614
52400.000			-18.069			-3.614
52500.000			-18.069			-3.614
52601.000			-18.068			-3.614
52700.000			-18.068			-3.614
52800.000			-18.067			-3.613
52901.000			-18.067			-3.613
53001.000			-18.066			-3.613
53101.000			-18.065			-3.613
53201.000			-18.064			-3.613
53300.000			-18.064			-3.613
53400.000			-18.064			-3.613
53501.000			-18.064			-3.613
53600.000			-18.063			-3.613
53700.000			-18.062			-3.612
53802.000			-18.062			-3.612
53901.000			-18.061			-3.612
54000.000			-18.060			-3.612
54101.000			-18.059			-3.612
54200.000			-18.059			-3.612
54300.000			-18.058			-3.612
54401.000			-18.057			-3.611
54500.000			-18.056			-3.611
54601.000			-18.056			-3.611
54702.000			-18.055			-3.611
54801.000			-18.054			-3.611
54900.000			-18.053			-3.611
55001.000			-18.054			-3.611
55100.000			-18.053			-3.611
55200.000			-18.051			-3.610
55300.000			-18.050			-3.610
55401.000			-18.051			-3.610
55502.000			-18.050			-3.610
55601.000			-18.049			-3.610
55700.000			-18.049			-3.610
55801.000			-18.049			-3.610
55900.000			-18.047			-3.609
56000.000			-18.046			-3.609
56101.000			-18.046			-3.609
56201.000			-18.046			-3.609
56301.000			-18.045			-3.609
56402.000			-18.043			-3.609
56500.000			-18.043			-3.609
56600.000			-18.043			-3.609
56701.000			-18.042			-3.608
56800.000			-18.041			-3.608
56900.000			-18.041			-3.608
57001.000			-18.041			-3.608
57101.000			-18.039			-3.608
57201.000			-18.039			-3.608
57301.000			-18.039			-3.608
57400.000			-18.038			-3.608
57500.000			-18.038			-3.608
57601.000			-18.037			-3.607
57700.000			-18.035			-3.607
57800.000			-18.035			-3.607
57902.000			-18.035			-3.607
58001.000			-18.034			-3.607
58100.000			-18.033			-3.607
58201.000			-18.033			-3.607
58300.000			-18.032			-3.606
58400.000			-18.032			-3.606
58500.000			-18.032			-3.606
58600.000			-18.031			-3.606
58702.000			-18.031			-3.606
58801.000			-18.029			-3.606
58900.000			-18.029			-3.606
59001.000			-18.029			-3.606
59100.000			-18.027			-3.605
59200.000			-18.026			-3.605
59301.000			-18.027			-3.605
59400.000			-18.026			-3.605
59501.000			-18.024			-3.605
59602.000			-18.025			-3.605
59700.000			-18.024			-3.605
59800.000			-18.023			-3.605
59901.000			-18.022			-3.604
60000.000			-18.021			-3.604
60100.000			-18.021			-3.604
60202.000			-18.020			-3.604
60301.000			-18.020			-3.604
60400.000			-18.020			-3.604
60501.000			-18.019			-3.604
60600.000			-18.019			-3.604
60700.000			-18.019			-3.604
60801.000			-18.017			-3.603
60900.000			-18.017			-3.603
61001.000			-18.015			-3.603
61102.000			-18.015			-3.603
61200.000			-18.014			-3.603
61300.000			-18.014			-3.603
61401.000			-18.014			-3.603
61500.000			-18.013			-3.603
61600.000			-18.013			-3.603
61700.000			-18.013			-3.603
61801.000			-18.011			-3.602
61902.000			-18.011			-3.602
62000.000			-18.010			-3.602
62100.000			-18.009			-3.602
62201.000			-18.008			-3.602
62300.000			-18.007			-3.601
62400.000			-18.007			-3.601
62501.000			-18.007			-3.601
62601.000			-18.006			-3.601
62701.000			-18.006			-3.601
62801.000			-18.006			-3.601
62900.000			-18.005			-3.601
63000.000			-18.005			-3.601
63101.000			-18.004			-3.601
63200.000			-18.003			-3.601
63300.000			-18.001			-3.600
63402.000			-18.002			-3.600
63501.000			-18.001			-3.600
63600.000			-18.001			-3.600
63701.000			-18.000			-3.600
63800.000			-18.000			-3.600
63900.000			-17.999			-3.600
64001.000			-17.999			-3.600
64100.000			-17.998			-3.600
64201.000			-17.998			-3.600
64302.000			-17.998			-3.600
64400.000			-17.997			-3.599
64500.000			-17.996			-3.599
64601.000			-17.995			-3.599
64700.000			-17.995			-3.599
64800.000			-17.994			-3.599
64900.000			-17.993			-3.599
65001.000			-17.992			-3.598
65102.000			-17.992			-3.598
65201.000			-17.992			-3.598
65300.000			-17.992			-3.598
65401.000			-17.990			-3.598
65500.000			-17.990			-3.598
65600.000			-17.990			-3.598
65701.000			-17.989			-3.598
65800.000			-17.989			-3.598
65901.000			-17.988			-3.598
66002.000			-17.987			-3.597
66100.000			-17.987			-3.597
66200.000			-17.987			-3.597
66301.000			-17.986			-3.597
66400.000			-17.985			-3.597
66500.000			-17.984			-3.597
66601.000			-17.984			-3.597
66701.000			-17.983			-3.597
66801.000			-17.983			-3.597
66902.000			-17.982			-3.596
67000.000			-17.982			-3.596
67100.000			-17.981			-3.596
67201.000			-17.980			-3.596
67300.000			-17.980			-3.596
67400.000			-17.980			-3.596
67501.000			-17.979			-3.596
67601.000			-17.979			-3.596
67701.000			-17.979			-3.596
67801.000			-17.978			-3.596
67900.000			-17.978			-3.596
68000.000			-17.977			-3.595
68100.000			-17.976			-3.595
68200.000			-17.976			-3.595
68301.000			-17.975			-3.595
68400.000			-17.973			-3.595
68501.000			-17.974			-3.595
68602.000			-17.974			-3.595
68700.000			-17.973			-3.595
68800.000			-17.973			-3.595
68901.000			-17.972			-3.594
69000.000			-17.972			-3.594
69100.000			-17.971			-3.594
69201.000			-17.971			-3.594
69301.000			-17.970			-3.594
69401.000			-17.970			-3.594
69501.000			-17.970			-3.594
69600.000			-17.970			-3.594
69700.000			-17.969			-3.594
69801.000			-17.967			-3.593
69900.000			-17.967			-3.593
70000.000			-17.967			-3.593
70101.000			-17.967			-3.593
70201.000			-17.966			-3.593
70301.000			-17.965			-3.593
70401.000			-17.964			-3.593
70500.000			-17.964			-3.593
70600.000			-17.963			-3.593
70701.000			-17.964			-3.593
70800.000			-17.963			-3.593
70900.000			-17.963			-3.593
71002.000			-17.962			-3.592
71101.000			-17.961			-3.592
71200.000			-17.960			-3.592
71300.000			-17.961			-3.592
71400.000			-17.961			-3.592
71501.000			-17.960			-3.592
71600.000			-17.959			-3.592
71700.000			-17.959			-3.592
71802.000			-17.959			-3.592
71901.000			-17.958			-3.592
72001.000			-17.957			-3.591
72101.000			-17.956			-3.591
72200.000			-17.955			-3.591
72300.000			-17.955			-3.591
72401.000			-17.956			-3.591
72500.000			-17.955			-3.591
72600.000			-17.954			-3.591
72702.000			-17.954			-3.591
72801.000			-17.953			-3.591
72900.000			-17.952			-3.590
73001.000			-17.952			-3.590
73100.000			-17.952			-3.590
73200.000			-17.952			-3.590
73301.000			-17.951			-3.590
73400.000			-17.951			-3.590
73501.000			-17.950			-3.590
73602.000			-17.950			-3.590
73700.000			-17.949			-3.590
73800.000			-17.949			-3.590
73901.000			-17.948			-3.590
74000.000			-17.948			-3.590
74100.000			-17.948			-3.590
74201.000			-17.947			-3.589
74301.000			-17.946			-3.589
74402.000			-17.945			-3.589
74501.000			-17.945			-3.589
74600.000			-17.945			-3.589
74701.000			-17.944			-3.589
74800.000			-17.944			-3.589
74900.000			-17.944			-3.589
75001.000			-17.943			-3.589
75100.000			-17.942			-3.588
75201.000			-17.942			-3.588
75302.000			-17.942			-3.588
75400.000			-17.941			-3.588
75500.000			-17.941			-3.588
75601.000			-17.940			-3.588
75700.000			-17.939			-3.588
75800.000			-17.939			-3.588
75901.000			-17.938			-3.588
76001.000			-17.938			-3.588
76101.000			-17.938			-3.588
76201.000			-17.937			-3.587
76300.000			-17.937			-3.587
76400.000			-17.937			-3.587
76501.000			-17.936			-3.587
76600.000			-17.935			-3.587
76700.000			-17.935			-3.587
76801.000			-17.935			-3.587
76901.000			-17.934			-3.587
77001.000			-17.934			-3.587
77101.000			-17.934			-3.587
77200.000			-17.932			-3.586
77300.000			-17.932			-3.586
77401.000			-17.932			-3.586
77500.000			-17.932			-3.586
77600.000			-17.933			-3.587
77702.000			-17.931			-3.586
77801.000			-17.930			-3.586
77901.000			-17.928			-3.586
78000.000			-17.929			-3.586
78100.000			-17.930			-3.586
78201.000			-17.930			-3.586
78300.000			-17.929			-3.586
78400.000			-17.928			-3.586
78501.000			-17.927			-3.585
78601.000			-17.927			-3.585
78701.000			-17.926			-3.585
78801.000			-17.925			-3.585
78900.000			-17.925			-3.585
79000.000			-17.925			-3.585
79101.000			-17.925			-3.585
79200.000			-17.925			-3.585
79300.000			-17.924			-3.585
79402.000			-17.923			-3.585
79501.000			-17.922			-3.584
79601.000			-17.922			-3.584
79701.000			-17.922			-3.584
79800.000			-17.921			-3.584
79900.000			-17.920			-3.584
80001.000			-17.920			-3.584
80100.000			-17.920			-3.584
80200.000			-17.920			-3.584
80302.000			-17.919			-3.584
80401.000			-17.919			-3.584
80500.000			-17.918			-3.584
80601.000			-17.917			-3.583
80700.000			-17.918			-3.584
80800.000			-17.918			-3.584
80900.000			-17.917			-3.583
81000.000			-17.915			-3.583
81102.000			-17.916			-3.583
81201.000			-17.916			-3.583
81300.000			-17.915			-3.583
81401.000			-17.915			-3.583
81500.000			-17.914			-3.583
81600.000			-17.913			-3.583
81701.000			-17.913			-3.583
81800.000			-17.912			-3.582
81901.000			-17.912			-3.582
82002.000			-17.912			-3.582
82100.000			-17.912			-3.582
82200.000			-17.912			-3.582
82301.000			-17.911			-3.582
82400.000			-17.909			-3.582
82500.000			-17.909			-3.582
82601.000			-17.909			-3.582
82701.000			-17.909			-3.582
82801.000			-17.909			-3.582
82902.000			-17.908			-3.582
83000.000			-17.907			-3.581
83100.000			-17.907			-3.581
83201.000			-17.907			-3.581
83300.000			-17.907			-3.581
83400.000			-17.907			-3.581
83501.000			-17.906			-3.581
83601.000			-17.905			-3.581
83701.000			-17.904			-3.581
83801.000			-17.904			-3.581
83900.000			-17.903			-3.581
84000.000			-17.902			-3.580
84100.000			-17.902			-3.580
84200.000			-17.902			-3.580
84301.000			-17.903			-3.581
84401.000			-17.902			-3.580
84501.000			-17.901			-3.580
84601.000			-17.900			-3.580
84700.000			-17.900			-3.580
84800.000			-17.900			-3.580
84901.000			-17.899			-3.580
85000.000			-17.899			-3.580
85100.000			-17.900			-3.580
85201.000			-17.899			-3.580
85301.000			-17.899			-3.580
85401.000			-17.898			-3.580
85501.000			-17.896			-3.579
85600.000			-17.897			-3.579
85700.000			-17.896			-3.579
85801.000			-17.896			-3.579
85900.000			-17.896			-3.579
86000.000			-17.894			-3.579
86102.000			-17.894			-3.579
86201.000			-17.894			-3.579
86301.000			-17.893			-3.579
86401.000			-17.893			-3.579
86500.000			-17.893			-3.579
86600.000			-17.892			-3.578
86701.000			-17.892			-3.578
86800.000			-17.891			-3.578
86900.000			-17.890			-3.578
87002.000			-17.890			-3.578
87101.000			-17.890			-3.578
87200.000			-17.890			-3.578
87300.000			-17.890			-3.578
87400.000			-17.889			-3.578
87501.000			-17.888			-3.578
87600.000			-17.887			-3.577
87700.000			-17.887			-3.577
87801.000			-17.887			-3.577
87901.000			-17.887			-3.577
88001.000			-17.886			-3.577
88101.000			-17.886			-3.577
88200.000			-17.887			-3.577
88300.000			-17.885			-3.577
88401.000			-17.884			-3.577
88500.000			-17.884			-3.577
88600.000			-17.884			-3.577
88701.000			-17.884			-3.577
88801.000			-17.883			-3.577
88901.000			-17.882			-3.576
89001.000			-17.883			-3.577
89100.000			-17.882			-3.576
89200.000			-17.881			-3.576
89301.000			-17.882			-3.576
89400.000			-17.882			-3.576
89500.000			-17.882			-3.576
89602.000			-17.879			-3.576
89701.000			-17.879			-3.576
89801.000			-17.879			-3.576
89901.000			-17.878			-3.576
90000.000			-17.879			-3.576
90100.000			-17.879			-3.576
90201.000			-17.877			-3.575
90300.000			-17.877			-3.575
90400.000			-17.876			-3.575
90502.000			-17.876			-3.575
90601.000			-17.876			-3.575
90701.000			-17.875			-3.575
90800.000			-17.875			-3.575
90900.000			-17.875			-3.575
91001.000			-17.874			-3.575
91100.000			-17.874			-3.575
91200.000			-17.872			-3.574
91301.000			-17.872			-3.574
91401.000			-17.873			-3.575
91501.000			-17.872			-3.574
91601.000			-17.872			-3.574
91700.000			-17.872			-3.574
91800.000			-17.871			-3.574
91901.000			-17.871			-3.574
92000.000			-17.870			-3.574
92100.000			-17.870			-3.574
92202.000			-17.869			-3.574
92301.000			-17.869			-3.574
92400.000			-17.869			-3.574
92501.000			-17.869			-3.574
92600.000			-17.868			-3.574
92700.000			-17.868			-3.574
92801.000			-17.867			-3.573
92900.000			-17.867			-3.573
93000.000			-17.866			-3.573
93102.000			-17.866			-3.573
93201.000			-17.865			-3.573
93300.000			-17.865			-3.573
93401.000			-17.865			-3.573
93500.000			-17.864			-3.573
93600.000			-17.863			-3.573
93700.000			-17.863			-3.573
93800.000			-17.863			-3.573
93902.000			-17.862			-3.572
94001.000			-17.862			-3.572
94100.000			-17.862			-3.572
94201.000			-17.862			-3.572
94300.000			-17.862			-3.572
94400.000			-17.861			-3.572
94501.000			-17.860			-3.572
94600.000			-17.860			-3.572
94701.000			-17.861			-3.572
94802.000			-17.859			-3.572
94901.000			-17.859			-3.572
95000.000			-17.859			-3.572
95101.000			-17.859			-3.572
95200.000			-17.858			-3.572
95300.000			-17.857			-3.571
95401.000			-17.857			-3.571
95500.000			-17.856			-3.571
95601.000			-17.856			-3.571
95702.000			-17.856			-3.571
95800.000			-17.856			-3.571
95900.000			-17.856			-3.571
96001.000			-17.854			-3.571
96100.000			-17.855			-3.571
96200.000			-17.855			-3.571
96301.000			-17.854			-3.571
96400.000			-17.854			-3.571
96501.000			-17.853			-3.571
96602.000			-17.853			-3.571
96700.000			-17.852			-3.570
96800.000			-17.851			-3.570
96900.000			-17.851			-3.570
97000.000			-17.851			-3.570
97101.000			-17.850			-3.570
97200.000			-17.851			-3.570
97301.000			-17.851			-3.570
97402.000			-17.851			-3.570
97501.000			-17.851			-3.570
97600.000			-17.850			-3.570
97701.000			-17.847			-3.569
97800.000			-17.847			-3.569
97900.000			-17.847			-3.569
98001.000			-17.847			-3.569
98100.000			-17.847			-3.569
98201.000			-17.847			-3.569
98302.000			-17.847			-3.569
98400.000			-17.847			-3.569
98500.000			-17.845			-3.569
98601.000			-17.846			-3.569
98700.000			-17.845			-3.569
98800.000			-17.845			-3.569
98901.000			-17.844			-3.569
99000.000			-17.843			-3.569
99101.000			-17.843			-3.569
99202.000			-17.843			-3.569
99300.000			-17.842			-3.568
99400.000			-17.842			-3.568
99501.000			-17.841			-3.568
99600.000			-17.841			-3.568
99700.000			-17.841			-3.568
99801.000			-17.841			-3.568
99901.000			-17.840			-3.568
100002.000			-17.840			-3.568
100101.000			-17.840			-3.568
100200.000			-17.840			-3.568
100301.000			-17.840			-3.568
100400.000			-17.839			-3.568
100500.000			-17.838			-3.568
100601.000			-17.838			-3.568
100700.000			-17.837			-3.567
100801.000			-17.838			-3.568
100902.000			-17.837			-3.567
101000.000			-17.837			-3.567
101100.000			-17.837			-3.567
101201.000			-17.836			-3.567
101300.000			-17.835			-3.567
101400.000			-17.835			-3.567
101501.000			-17.835			-3.567
101601.000			-17.834			-3.567
101701.000			-17.834			-3.567
101802.000			-17.834			-3.567
101900.000			-17.834			-3.567
102000.000			-17.833			-3.567
102101.000			-17.831			-3.566
102200.000			-17.832			-3.566
102300.000			-17.832			-3.566
102401.000			-17.832			-3.566
102501.000			-17.832			-3.566
102601.000			-17.831			-3.566
102701.000			-17.830			-3.566
102800.000			-17.831			-3.566
102900.000			-17.831			-3.566
103001.000			-17.830			-3.566
103100.000			-17.829			-3.566
103200.000			-17.829			-3.566
103302.000			-17.828			-3.566
103401.000			-17.828			-3.566
103501.000			-17.828			-3.566
103600.000			-17.827			-3.565
103700.000			-17.826			-3.565
103801.000			-17.826			-3.565
103900.000			-17.827			-3.565
104000.000			-17.827			-3.565
104101.000			-17.826			-3.565
104201.000			-17.825			-3.565
104301.000			-17.825			-3.565
104401.000			-17.824			-3.565
104500.000			-17.825			-3.565
104600.000			-17.825			-3.565
104701.000			-17.824			-3.565
104800.000			-17.823			-3.565
104900.000			-17.824			-3.565
105002.000			-17.823			-3.565
105101.000			-17.822			-3.564
105201.000			-17.821			-3.564
105301.000			-17.821			-3.564
105400.000			-17.821			-3.564
105500.000			-17.822			-3.564
105601.000			-17.822			-3.564
105700.000			-17.820			-3.564
105800.000			-17.820			-3.564
105902.000			-17.820			-3.564
106001.000			-17.820			-3.564
106100.000			-17.819			-3.564
106201.000			-17.819			-3.564
106300.000			-17.819			-3.564
106400.000			-17.819			-3.564
106500.000			-17.818			-3.564
106600.000			-17.818			-3.564
106701.000			-17.819			-3.564
106801.000			-17.817			-3.563
106901.000			-17.816			-3.563
107001.000			-17.816			-3.563
107100.000			-17.815			-3.563
107200.000			-17.815			-3.563
107301.000			-17.815			-3.563
107400.000			-17.815			-3.563
107500.000			-17.814			-3.563
107602.000			-17.815			-3.563
107701.000			-17.814			-3.563
107801.000			-17.813			-3.563
107901.000			-17.812			-3.562
108000.000			-17.812			-3.562
108100.000			-17.813			-3.563
108201.000			-17.813			-3.563
108300.000			-17.812			-3.562
108400.000			-17.812			-3.562
108502.000			-17.812			-3.562
108601.000			-17.812			-3.562
108700.000			-17.810			-3.562
108801.000			-17.810			-3.562
108900.000			-17.809			-3.562
109000.000			-17.810			-3.562
109101.000			-17.810			-3.562
109200.000			-17.810			-3.562
109300.000			-17.809			-3.562
109402.000			-17.810			-3.562
109501.000			-17.809			-3.562
109600.000			-17.808			-3.562
109700.000			-17.808			-3.562
109800.000			-17.808			-3.562
109901.000			-17.807			-3.561
110000.000			-17.807			-3.561
110100.000			-17.807			-3.561
110202.000			-17.806			-3.561
110301.000			-17.806			-3.561
110400.000			-17.806			-3.561
110501.000			-17.805			-3.561
110600.000			-17.805			-3.561
110700.000			-17.805			-3.561
110801.000			-17.805			-3.561
110900.000			-17.804			-3.561
111000.000			-17.804			-3.561
111102.000			-17.804			-3.561
111201.000			-17.803			-3.561
111300.000			-17.803			-3.561
111401.000			-17.803			-3.561
111500.000			-17.803			-3.561
111600.000			-17.803			-3.561
111701.000			-17.802			-3.560
111800.000			-17.801			-3.560
111901.000			-17.800			-3.560
112002.000			-17.800			-3.560
112100.000			-17.800			-3.560
112200.000			-17.801			-3.560
112301.000			-17.800			-3.560
112400.000			-17.800			-3.560
112500.000			-17.799			-3.560
112601.000			-17.800			-3.560
112701.000			-17.800			-3.560
112802.000			-17.798			-3.560
112901.000			-17.797			-3.559
113000.000			-17.797			-3.559
113101.000			-17.797			-3.559
113200.000			-17.796			-3.559
113300.000			-17.796			-3.559
113401.000			-17.797			-3.559
113500.000			-17.796			-3.559
113601.000			-17.795			-3.559
113702.000			-17.795			-3.559
113800.000			-17.794			-3.559
113900.000			-17.794			-3.559
114001.000			-17.794			-3.559
114100.000			-17.793			-3.559
114200.000			-17.793			-3.559
114301.000			-17.793			-3.559
114400.000			-17.793			-3.559
114501.000			-17.793			-3.559
114602.000			-17.793			-3.559
114700.000			-17.792			-3.558
114800.000			-17.792			-3.558
114901.000			-17.792			-3.558
115000.000			-17.792			-3.558
115100.000			-17.791			-3.558
115201.000			-17.791			-3.558
115301.000			-17.791			-3.558
115401.000			-17.791			-3.558
115502.000			-17.791			-3.558
115600.000			-17.790			-3.558
115700.000			-17.790			-3.558
115801.000			-17.789			-3.558
115900.000			-17.788			-3.558
116000.000			-17.788			-3.558
116100.000			-17.788			-3.558
116201.000			-17.787			-3.557
116302.000			-17.787			-3.557
116401.000			-17.787			-3.557
116500.000			-17.787			-3.557
116601.000			-17.786			-3.557
116700.000			-17.786			-3.557
116800.000			-17.785			-3.557
116901.000			-17.785			-3.557
117000.000			-17.785			-3.557
117101.000			-17.785			-3.557
117202.000			-17.785			-3.557
117300.000			-17.785			-3.557
117400.000			-17.784			-3.557
117501.000			-17.783			-3.557
117600.000			-17.783			-3.557
117700.000			-17.783			-3.557
117801.000			-17.782			-3.556
117900.000			-17.782			-3.556
118001.000			-17.781			-3.556
118102.000			-17.780			-3.556
118200.000			-17.782			-3.556
118300.000			-17.781			-3.556
118401.000			-17.781			-3.556
118500.000			-17.781			-3.556
118600.000			-17.780			-3.556
118701.000			-17.779			-3.556
118800.000			-17.778			-3.556
118901.000			-17.778			-3.556
119002.000			-17.778			-3.556
119100.000			-17.778			-3.556
119200.000			-17.777			-3.555
119300.000			-17.778			-3.556
119400.000			-17.778			-3.556
119501.000			-17.778			-3.556
119600.000			-17.778			-3.556
119700.000			-17.777			-3.555
119802.000			-17.777			-3.555
119901.000			-17.777			-3.555
120000.000			-17.776			-3.555
120101.000			-17.775			-3.555
120200.000			-17.775			-3.555
120300.000			-17.776			-3.555
120401.000			-17.775			-3.555
120500.000			-17.776			-3.555
120600.000			-17.775			-3.555
120702.000			-17.774			-3.555
120801.000			-17.774			-3.555
120900.000			-17.774			-3.555
121001.000			-17.774			-3.555
121100.000			-17.774			-3.555
121200.000			-17.772			-3.554
121301.000			-17.772			-3.554
121400.000			-17.771			-3.554
121501.000			-17.770			-3.554
121602.000			-17.771			-3.554
121701.000			-17.771			-3.554
121800.000			-17.772			-3.554
121901.000			-17.770			-3.554
122000.000			-17.770			-3.554
122100.000			-17.770			-3.554
122201.000			-17.769			-3.554
122300.000			-17.769			-3.554
122402.000			-17.769			-3.554
122501.000			-17.769			-3.554
122600.000			-17.769			-3.554
122701.000			-17.768			-3.554
122800.000			-17.768			-3.554
122900.000			-17.768			-3.554
123001.000			-17.767			-3.553
123100.000			-17.767			-3.553
123200.000			-17.767			-3.553
123302.000			-17.768			-3.554
123401.000			-17.766			-3.553
123500.000			-17.765			-3.553
123601.000			-17.765			-3.553
123700.000			-17.764			-3.553
123800.000			-17.764			-3.553
123901.000			-17.766			-3.553
124000.000			-17.764			-3.553
124100.000			-17.764			-3.553
124202.000			-17.763			-3.553
124301.000			-17.763			-3.553
124400.000			-17.762			-3.552
124501.000			-17.762			-3.552
124600.000			-17.763			-3.553
124700.000			-17.762			-3.552
124801.000			-17.760			-3.552
124900.000			-17.763			-3.553
125001.000			-17.762			-3.552
125102.000			-17.762			-3.552
125201.000			-17.761			-3.552
125300.000			-17.761			-3.552
125401.000			-17.761			-3.552
125500.000			-17.761			-3.552
125600.000			-17.760			-3.552
125700.000			-17.760			-3.552
125800.000			-17.759			-3.552
125902.000			-17.760			-3.552
126001.000			-17.758			-3.552
126100.000			-17.758			-3.552
126201.000			-17.759			-3.552
126300.000			-17.758			-3.552
126400.000			-17.758			-3.552
126501.000			-17.758			-3.552
126600.000			-17.757			-3.551
126700.000			-17.757			-3.551
126802.000			-17.757			-3.551
126901.000			-17.756			-3.551
127000.000			-17.756			-3.551
127101.000			-17.757			-3.551
127200.000			-17.756			-3.551
127300.000			-17.756			-3.551
127401.000			-17.755			-3.551
127500.000			-17.755			-3.551
127600.000			-17.755			-3.551
127702.000			-17.754			-3.551
127801.000			-17.755			-3.551
127900.000			-17.754			-3.551
128001.000			-17.753			-3.551
128100.000			-17.753			-3.551
128200.000			-17.753			-3.551
128301.000			-17.753			-3.551
128400.000			-17.752			-3.550
128501.000			-17.752			-3.550
128602.000			-17.751			-3.550
128701.000			-17.752			-3.550
128800.000			-17.752			-3.550
128900.000			-17.752			-3.550
129000.000			-17.751			-3.550
129101.000			-17.751			-3.550
129200.000			-17.751			-3.550
129300.000			-17.750			-3.550
129402.000			-17.749			-3.550
129501.000			-17.751			-3.550
129601.000			-17.750			-3.550
129701.000			-17.749			-3.550
129800.000			-17.748			-3.550
129900.000			-17.749			-3.550
130001.000			-17.747			-3.549
130100.000			-17.747			-3.549
130200.000			-17.748			-3.550
130302.000			-17.748			-3.550
130401.000			-17.747			-3.549
130501.000			-17.747			-3.549
130601.000			-17.747			-3.549
130700.000			-17.747			-3.549
130800.000			-17.746			-3.549
130901.000			-17.747			-3.549
131000.000			-17.747			-3.549
131100.000			-17.746			-3.549
131202.000			-17.746			-3.549
131301.000			-17.746			-3.549
131400.000			-17.745			-3.549
131501.000			-17.744			-3.549
131600.000			-17.744			-3.549
131700.000			-17.744			-3.549
131801.000			-17.744			-3.549
131900.000			-17.744			-3.549
132000.000			-17.743			-3.549
132102.000			-17.742			-3.548
132201.000			-17.743			-3.549
132302.000			-17.743			-3.549
132400.000			-17.742			-3.548
132500.000			-17.741			-3.548
132601.000			-17.741			-3.548
132700.000			-17.742			-3.548
132800.000			-17.741			-3.548
132901.000			-17.741			-3.548
133001.000			-17.741			-3.548
133101.000			-17.741			-3.548
133202.000			-17.741			-3.548
133300.000			-17.740			-3.548
133400.000			-17.740			-3.548
133501.000			-17.739			-3.548
133600.000			-17.739			-3.548
133700.000			-17.738			-3.548
133801.000			-17.739			-3.548
133900.000			-17.739			-3.548
134001.000			-17.737			-3.547
134102.000			-17.737			-3.547
134200.000			-17.738			-3.548
134300.000			-17.738			-3.548
134401.000			-17.736			-3.547
134500.000			-17.736			-3.547
134600.000			-17.736			-3.547
134701.000			-17.735			-3.547
134800.000			-17.735			-3.547
134901.000			-17.735			-3.547
135002.000			-17.735			-3.547
135101.000			-17.734			-3.547
135200.000			-17.734			-3.547
135300.000			-17.735			-3.547
135400.000			-17.735			-3.547
135501.000			-17.733			-3.547
135600.000			-17.732			-3.546
135700.000			-17.733			-3.547
135801.000			-17.734			-3.547
135901.000			-17.733			-3.547
136001.000			-17.733			-3.547
136101.000			-17.733			-3.547
136200.000			-17.733			-3.547
136300.000			-17.732			-3.546
136401.000			-17.732			-3.546
136500.000			-17.731			-3.546
136600.000			-17.731			-3.546
136701.000			-17.730			-3.546
136801.000			-17.731			-3.546
136901.000			-17.732			-3.546
137002.000			-17.729			-3.546
137100.000			-17.730			-3.546
137200.000			-17.730			-3.546
137301.000			-17.729			-3.546
137400.000			-17.729			-3.546
137500.000			-17.729			-3.546
137601.000			-17.729			-3.546
137700.000			-17.729			-3.546
137801.000			-17.729			-3.546
137902.000			-17.729			-3.546
138000.000			-17.728			-3.546
138100.000			-17.728			-3.546
138201.000			-17.728			-3.546
138300.000			-17.727			-3.545
138400.000			-17.726			-3.545
138500.000			-17.727			-3.545
138600.000			-17.727			-3.545
138701.000			-17.726			-3.545
138801.000			-17.727			-3.545
138901.000			-17.727			-3.545
139001.000			-17.726			-3.545
139100.000			-17.725			-3.545
139200.000			-17.724			-3.545
139301.000			-17.724			-3.545
139400.000			-17.724			-3.545
139500.000			-17.724			-3.545
139601.000			-17.724			-3.545
139701.000			-17.724			-3.545
139801.000			-17.724			-3.545
139902.000			-17.723			-3.545
140000.000			-17.723			-3.545
140100.000			-17.723			-3.545
140201.000			-17.723			-3.545
140300.000			-17.722			-3.544
140400.000			-17.721			-3.544
140501.000			-17.722			-3.544
140601.000			-17.721			-3.544
140701.000			-17.720			-3.544
140802.000			-17.721			-3.544
140900.000			-17.720			-3.544
141000.000			-17.721			-3.544
141101.000			-17.720			-3.544
141200.000			-17.720			-3.544
141300.000			-17.719			-3.544
141401.000			-17.719			-3.544
141501.000			-17.719			-3.544
141602.000			-17.719			-3.544
141701.000			-17.718			-3.544
141800.000			-17.719			-3.544
141901.000			-17.719			-3.544
142000.000			-17.718			-3.544
142100.000			-17.718			-3.544
142201.000			-17.717			-3.543
142300.000			-17.717			-3.543
142400.000			-17.717			-3.543
142502.000			-17.717			-3.543
142601.000			-17.717			-3.543
142701.000			-17.717			-3.543
142801.000			-17.716			-3.543
142900.000			-17.716			-3.543
143000.000			-17.716			-3.543
143101.000			-17.716			-3.543
143200.000			-17.715			-3.543
143300.000			-17.715			-3.543
143402.000			-17.715			-3.543
143501.000			-17.715			-3.543
143601.000			-17.715			-3.543
143701.000			-17.714			-3.543
143800.000			-17.714			-3.543
143900.000			-17.715			-3.543
144001.000			-17.713			-3.543
144100.000			-17.712			-3.542
144200.000			-17.712			-3.542
144301.000			-17.712			-3.542
144401.000			-17.711			-3.542
144501.000			-17.712			-3.542
144601.000			-17.712			-3.542
144700.000			-17.712			-3.542
144800.000			-17.712			-3.542
144900.000			-17.711			-3.542
145000.000			-17.712			-3.542
145101.000			-17.712			-3.542
145200.000			-17.711			-3.542
145301.000			-17.710			-3.542
145402.000			-17.710			-3.542
145500.000			-17.709			-3.542
145600.000			-17.709			-3.542
145701.000			-17.709			-3.542
145800.000			-17.709			-3.542
145900.000			-17.708			-3.542
146001.000			-17.708			-3.542
146100.000			-17.707			-3.541
146201.000			-17.708			-3.542
146302.000			-17.709			-3.542
146401.000			-17.708			-3.542
146500.000			-17.707			-3.541
146601.000			-17.707			-3.541
146700.000			-17.707			-3.541
146800.000			-17.708			-3.542
146901.000			-17.706			-3.541
147000.000			-17.706			-3.541
147100.000			-17.706			-3.541
147202.000			-17.706			-3.541
147301.000			-17.706			-3.541
147401.000			-17.705			-3.541
147501.000			-17.704			-3.541
147600.000			-17.705			-3.541
147700.000			-17.705			-3.541
147801.000			-17.704			-3.541
147900.000			-17.704			-3.541
148000.000			-17.703			-3.541
148102.000			-17.702			-3.540
148201.000			-17.703			-3.541
148302.000			-17.702			-3.540
148400.000			-17.702			-3.540
148500.000			-17.702			-3.540
148601.000			-17.701			-3.540
148700.000			-17.701			-3.540
148800.000			-17.701			-3.540
148901.000			-17.701			-3.540
149000.000			-17.701			-3.540
149101.000			-17.700			-3.540
149202.000			-17.700			-3.540
149300.000			-17.701			-3.540
149400.000			-17.700			-3.540
149501.000			-17.700			-3.540
149600.000			-17.701			-3.540
149700.000			-17.701			-3.540
149801.000			-17.700			-3.540
149900.000			-17.699			-3.540
150000.000			-17.700			-3.540
150102.000			-17.698			-3.540
150201.000			-17.697			-3.539
150300.000			-17.699			-3.540
150401.000			-17.698			-3.540
150500.000			-17.698			-3.540
150600.000			-17.697			-3.539
150701.000			-17.698			-3.540
150800.000			-17.698			-3.540
150900.000			-17.697			-3.539
151002.000			-17.696			-3.539
151101.000			-17.697			-3.539
151202.000			-17.696			-3.539
151300.000			-17.696			-3.539
151400.000			-17.695			-3.539
151501.000			-17.695			-3.539
151600.000			-17.695			-3.539
151700.000			-17.694			-3.539
151801.000			-17.695			-3.539
151900.000			-17.694			-3.539
152001.000			-17.694			-3.539
152102.000			-17.694			-3.539
152201.000			-17.694			-3.539
152300.000			-17.694			-3.539
152401.000			-17.693			-3.539
152500.000			-17.694			-3.539
152600.000			-17.694			-3.539
152701.000			-17.693			-3.539
152800.000			-17.692			-3.538
152900.000			-17.691			-3.538
153002.000			-17.692			-3.538
153101.000			-17.692			-3.538
153200.000			-17.692			-3.538
153301.000			-17.693			-3.539
153400.000			-17.692			-3.538
153500.000			-17.691			-3.538
153601.000			-17.691			-3.538
153700.000			-17.690			-3.538
153800.000			-17.690			-3.538
153901.000			-17.691			-3.538
154001.000			-17.690			-3.538
154101.000			-17.690			-3.538
154201.000			-17.689			-3.538
154300.000			-17.688			-3.538
154400.000			-17.687			-3.537
154500.000			-17.687			-3.537
154600.000			-17.688			-3.538
154701.000			-17.689			-3.538
154800.000			-17.689			-3.538
154901.000			-17.687			-3.537
155002.000			-17.687			-3.537
155101.000			-17.687			-3.537
155200.000			-17.687			-3.537
155301.000			-17.687			-3.537
155400.000			-17.686			-3.537
155500.000			-17.686			-3.537
155601.000			-17.687			-3.537
155700.000			-17.687			-3.537
155800.000			-17.687			-3.537
155902.000			-17.686			-3.537
156001.000			-17.685			-3.537
156101.000			-17.685			-3.537
156201.000			-17.685			-3.537
156300.000			-17.684			-3.537
156400.000			-17.684			-3.537
156501.000			-17.684			-3.537
156600.000			-17.683			-3.537
156700.000			-17.684			-3.537
156801.000			-17.684			-3.537
156901.000			-17.683			-3.537
157001.000			-17.683			-3.537
157102.000			-17.682			-3.536
157200.000			-17.682			-3.536
157300.000			-17.682			-3.536
157401.000			-17.682			-3.536
157500.000			-17.682			-3.536
157600.000			-17.682			-3.536
157700.000			-17.681			-3.536
157800.000			-17.681			-3.536
157902.000			-17.681			-3.536
158001.000			-17.681			-3.536
158100.000			-17.681			-3.536
158201.000			-17.680			-3.536
158300.000			-17.680			-3.536
158400.000			-17.681			-3.536
158501.000			-17.681			-3.536
158600.000			-17.680			-3.536
158700.000			-17.679			-3.536
158802.000			-17.679			-3.536
158901.000			-17.679			-3.536
159001.000			-17.679			-3.536
159101.000			-17.678			-3.536
159200.000			-17.678			-3.536
159300.000			-17.678			-3.536
159401.000			-17.678			-3.536
159500.000			-17.677			-3.535
159600.000			-17.677			-3.535
159701.000			-17.678			-3.536
159801.000			-17.677			-3.535
159901.000			-17.678			-3.536
160002.000			-17.677			-3.535
160100.000			-17.677			-3.535
160200.000			-17.677			-3.535
160301.000			-17.676			-3.535
160400.000			-17.675			-3.535
160500.000			-17.675			-3.535
160601.000			-17.675			-3.535
160700.000			-17.675			-3.535
160802.000			-17.674			-3.535
160901.000			-17.675			-3.535
161001.000			-17.675			-3.535
161101.000			-17.675			-3.535
161200.000			-17.674			-3.535
161300.000			-17.674			-3.535
161401.000			-17.674			-3.535
161500.000			-17.672			-3.534
161600.000			-17.673			-3.535
161701.000			-17.673			-3.535
161801.000			-17.673			-3.535
161901.000			-17.673			-3.535
162001.000			-17.672			-3.534
162100.000			-17.673			-3.535
162200.000			-17.672			-3.534
162301.000			-17.672			-3.534
162400.000			-17.672			-3.534
162500.000			-17.672			-3.534
162601.000			-17.672			-3.534
162701.000			-17.671			-3.534
162801.000			-17.670			-3.534
162902.000			-17.670			-3.534
163000.000			-17.670			-3.534
163100.000			-17.670			-3.534
163201.000			-17.670			-3.534
163300.000			-17.670			-3.534
163400.000			-17.670			-3.534
163501.000			-17.669			-3.534
163600.000			-17.669			-3.534
163701.000			-17.669			-3.534
163802.000			-17.669			-3.534
163901.000			-17.668			-3.534
164000.000			-17.669			-3.534
164100.000			-17.669			-3.534
164200.000			-17.667			-3.533
164301.000			-17.667			-3.533
164400.000			-17.668			-3.534
164500.000			-17.668			-3.534
164601.000			-17.668			-3.534
164701.000			-17.667			-3.533
164801.000			-17.667			-3.533
164902.000			-17.667			-3.533
165000.000			-17.667			-3.533
165100.000			-17.666			-3.533
165201.000			-17.665			-3.533
165300.000			-17.665			-3.533
165400.000			-17.665			-3.533
165501.000			-17.665			-3.533
165600.000			-17.665			-3.533
165701.000			-17.665			-3.533
165802.000			-17.664			-3.533
165900.000			-17.664			-3.533
166000.000			-17.664			-3.533
166101.000			-17.664			-3.533
166200.000			-17.664			-3.533
166300.000			-17.664			-3.533
166401.000			-17.663			-3.533
166500.000			-17.662			-3.532
166601.000			-17.662			-3.532
166702.000			-17.663			-3.533
166801.000			-17.663			-3.533
166900.000			-17.661			-3.532
167001.000			-17.661			-3.532
167100.000			-17.662			-3.532
167200.000			-17.662			-3.532
167300.000			-17.662			-3.532
167400.000			-17.660			-3.532
167501.000			-17.661			-3.532
167601.000			-17.660			-3.532
167701.000			-17.660			-3.532
167801.000			-17.660			-3.532
167900.000			-17.660			-3.532
168000.000			-17.661			-3.532
168101.000			-17.659			-3.532
168200.000			-17.659			-3.532
168300.000			-17.659			-3.532
168401.000			-17.658			-3.532
168501.000			-17.658			-3.532
168601.000			-17.659			-3.532
168702.000			-17.658			-3.532
168800.000			-17.658			-3.532
168900.000			-17.657			-3.531
169001.000			-17.656			-3.531
169100.000			-17.657			-3.531
169200.000			-17.658			-3.532
169301.000			-17.657			-3.531
169400.000			-17.657			-3.531
169500.000			-17.657			-3.531
169602.000			-17.656			-3.531
169701.000			-17.655			-3.531
169800.000			-17.656			-3.531
169901.000			-17.657			-3.531
170000.000			-17.657			-3.531
170100.000			-17.656			-3.531
170201.000			-17.655			-3.531
170300.000			-17.655			-3.531
170400.000			-17.656			-3.531
170502.000			-17.656			-3.531
170601.000			-17.655			-3.531
170702.000			-17.654			-3.531
170800.000			-17.653			-3.531
170900.000			-17.653			-3.531
171001.000			-17.654			-3.531
171100.000			-17.652			-3.530
171200.000			-17.652			-3.530
171301.000			-17.652			-3.530
171400.000			-17.651			-3.530
171501.000			-17.651			-3.530
171602.000			-17.652			-3.530
171701.000			-17.652			-3.530
171800.000			-17.652			-3.530
171901.000			-17.651			-3.530
172000.000			-17.651			-3.530
172100.000			-17.651			-3.530
172201.000			-17.650			-3.530
172300.000			-17.650			-3.530
172400.000			-17.650			-3.530
172502.000			-17.649			-3.530
172601.000			-17.649			-3.530
172700.000			-17.649			-3.530
172801.000			-17.649			-3.530
172900.000			-17.648			-3.530
173000.000			-17.648			-3.530
173101.000			-17.648			-3.530
173200.000			-17.647			-3.529
173300.000			-17.649			-3.530
173402.000			-17.648			-3.530
173501.000			-17.648			-3.530
173602.000			-17.649			-3.530
173700.000			-17.648			-3.530
173800.000			-17.648			-3.530
173901.000			-17.648			-3.530
174000.000			-17.648			-3.530
174100.000			-17.648			-3.530
174201.000			-17.647			-3.529
174300.000			-17.647			-3.529
174401.000			-17.646			-3.529
174502.000			-17.645			-3.529
174601.000			-17.645			-3.529
174700.000			-17.645			-3.529
174801.000			-17.646			-3.529
174900.000			-17.645			-3.529
175000.000			-17.645			-3.529
175101.000			-17.645			-3.529
175200.000			-17.643			-3.529
175300.000			-17.643			-3.529
175402.000			-17.644			-3.529
175501.000			-17.644			-3.529
175600.000			-17.644			-3.529
175701.000			-17.643			-3.529
175800.000			-17.643			-3.529
175900.000			-17.644			-3.529
176001.000			-17.643			-3.529
176100.000			-17.642			-3.528
176200.000			-17.642			-3.528
176301.000			-17.643			-3.529
176401.000			-17.642			-3.528
176501.000			-17.642			-3.528
176601.000			-17.642			-3.528
176700.000			-17.643			-3.529
176800.000			-17.642			-3.528
176900.000			-17.641			-3.528
177000.000			-17.641			-3.528
177101.000			-17.641			-3.528
177200.000			-17.641			-3.528
177301.000			-17.640			-3.528
177402.000			-17.639			-3.528
177501.000			-17.640			-3.528
177600.000			-17.640			-3.528
177701.000			-17.640			-3.528
177800.000			-17.640			-3.528
177900.000			-17.639			-3.528
178001.000			-17.639			-3.528
178100.000			-17.639			-3.528
178200.000			-17.639			-3.528
178302.000			-17.639			-3.528
178401.000			-17.638			-3.528
178501.000			-17.638			-3.528
178601.000			-17.639			-3.528
178700.000			-17.639			-3.528
178800.000			-17.638			-3.528
178901.000			-17.637			-3.527
179000.000			-17.637			-3.527
179100.000			-17.637			-3.527
179201.000			-17.636			-3.527
179301.000			-17.636			-3.527
179401.000			-17.637			-3.527
179502.000			-17.636			-3.527
179600.000			-17.635			-3.527
179700.000			-17.636			-3.527
179801.000			-17.636			-3.527
179900.000			-17.636			-3.527
180000.000			-17.636			-3.527
180100.000			-17.636			-3.527
180200.000			-17.636			-3.527
180302.000			-17.634			-3.527
180401.000			-17.634			-3.527
180501.000			-17.634			-3.527
180601.000			-17.634			-3.527
180700.000			-17.634			-3.527
180800.000			-17.633			-3.527
180901.000			-17.634			-3.527
181000.000			-17.634			-3.527
181100.000			-17.634			-3.527
181201.000			-17.634			-3.527
181301.000			-17.633			-3.527
181401.000			-17.633			-3.527
181501.000			-17.633			-3.527
181600.000			-17.632			-3.526
181700.000			-17.632			-3.526
181801.000			-17.632			-3.526
181900.000			-17.632			-3.526
182000.000			-17.631			-3.526
182101.000			-17.631			-3.526
182201.000			-17.631			-3.526
182301.000			-17.631			-3.526
182402.000			-17.631			-3.526
182500.000			-17.630			-3.526
182600.000			-17.630			-3.526
182701.000			-17.631			-3.526
182800.000			-17.630			-3.526
182900.000			-17.631			-3.526
183001.000			-17.631			-3.526
183101.000			-17.630			-3.526
183202.000			-17.629			-3.526
183301.000			-17.629			-3.526
183400.000			-17.629			-3.526
183501.000			-17.629			-3.526
183600.000			-17.628			-3.526
183700.000			-17.628			-3.526
183801.000			-17.628			-3.526
183900.000			-17.628			-3.526
184000.000			-17.628			-3.526
184101.000			-17.627			-3.525
184201.000			-17.627			-3.525
184301.000			-17.627			-3.525
184401.000			-17.627			-3.525
184500.000			-17.627			-3.525
184600.000			-17.626			-3.525
184701.000			-17.626			-3.525
184800.000			-17.626			-3.525
184900.000			-17.626			-3.525
185001.000			-17.625			-3.525
185101.000			-17.626			-3.525
185201.000			-17.626			-3.525
185302.000			-17.626			-3.525
185400.000			-17.625			-3.525
185500.000			-17.625			-3.525
185601.000			-17.624			-3.525
185700.000			-17.624			-3.525
185800.000			-17.623			-3.525
185901.000			-17.623			-3.525
186000.000			-17.624			-3.525
186101.000			-17.624			-3.525
186202.000			-17.624			-3.525
186301.000			-17.623			-3.525
186400.000			-17.623			-3.525
186500.000			-17.623			-3.525
186600.000			-17.623			-3.525
186701.000			-17.622			-3.524
186800.000			-17.623			-3.525
186900.000			-17.623			-3.525
187001.000			-17.623			-3.525
187101.000			-17.622			-3.524
187201.000			-17.622			-3.524
187301.000			-17.622			-3.524
187400.000			-17.622			-3.524
187500.000			-17.621			-3.524
187601.000			-17.621			-3.524
187700.000			-17.621			-3.524
187800.000			-17.621			-3.524
187901.000			-17.621			-3.524
188001.000			-17.621			-3.524
188101.000			-17.620			-3.524
188202.000			-17.620			-3.524
188300.000			-17.619			-3.524
188400.000			-17.619			-3.524
188501.000			-17.619			-3.524
188600.000			-17.620			-3.524
188700.000			-17.619			-3.524
188801.000			-17.619			-3.524
188900.000			-17.619			-3.524
189001.000			-17.619			-3.524
189102.000			-17.618			-3.524
189201.000			-17.618			-3.524
189300.000			-17.618			-3.524
189401.000			-17.618			-3.524
189500.000			-17.617			-3.523
189600.000			-17.617			-3.523
189700.000			-17.617			-3.523
189800.000			-17.617			-3.523
189901.000			-17.617			-3.523
190001.000			-17.617			-3.523
190101.000			-17.618			-3.524
190201.000			-17.616			-3.523
190300.000			-17.615			-3.523
190400.000			-17.616			-3.523
190501.000			-17.615			-3.523
190600.000			-17.616			-3.523
190700.000			-17.615			-3.523
190801.000			-17.614			-3.523
190901.000			-17.616			-3.523
191001.000			-17.616			-3.523
191102.000			-17.614			-3.523
191200.000			-17.614			-3.523
191300.000			-17.615			-3.523
191401.000			-17.614			-3.523
191500.000			-17.614			-3.523
191600.000			-17.614			-3.523
191701.000			-17.614			-3.523
191800.000			-17.613			-3.523
191901.000			-17.613			-3.523
192002.000			-17.613			-3.523
192100.000			-17.613			-3.523
192200.000			-17.612			-3.522
192301.000			-17.612			-3.522
192400.000			-17.612			-3.522
192500.000			-17.612			-3.522
192601.000			-17.612			-3.522
192700.000			-17.612			-3.522
192802.000			-17.611			-3.522
192901.000			-17.610			-3.522
193000.000			-17.611			-3.522
193101.000			-17.610			-3.522
193200.000			-17.610			-3.522
193300.000			-17.610			-3.522
193401.000			-17.611			-3.522
193500.000			-17.611			-3.522
193600.000			-17.610			-3.522
193702.000			-17.610			-3.522
193801.000			-17.610			-3.522
193900.000			-17.610			-3.522
194001.000			-17.610			-3.522
194100.000			-17.609			-3.522
194200.000			-17.609			-3.522
194301.000			-17.609			-3.522
194400.000			-17.609			-3.522
194500.000			-17.609			-3.522
194602.000			-17.609			-3.522
194701.000			-17.609			-3.522
194801.000			-17.608			-3.522
194901.000			-17.607			-3.521
195000.000			-17.607			-3.521
195100.000			-17.608			-3.522
195201.000			-17.608			-3.522
195300.000			-17.607			-3.521
195400.000			-17.606			-3.521
195501.000			-17.606			-3.521
195601.000			-17.606			-3.521
195701.000			-17.607			-3.521
195802.000			-17.607			-3.521
195900.000			-17.607			-3.521
196000.000			-17.606			-3.521
196100.000			-17.606			-3.521
196200.000			-17.605			-3.521
196301.000			-17.605			-3.521
196400.000			-17.605			-3.521
196500.000			-17.605			-3.521
196602.000			-17.605			-3.521
196701.000			-17.605			-3.521
196801.000			-17.605			-3.521
196901.000			-17.604			-3.521
197000.000			-17.603			-3.521
197100.000			-17.603			-3.521
197201.000			-17.603			-3.521
197300.000			-17.604			-3.521
197400.000			-17.603			-3.521
197501.000			-17.603			-3.521
197601.000			-17.602			-3.520
197701.000			-17.602			-3.520
197801.000			-17.601			-3.520
197900.000			-17.602			-3.520
198000.000			-17.602			-3.520
198101.000			-17.602			-3.520
198200.000			-17.602			-3.520
198300.000			-17.602			-3.520
198401.000			-17.603			-3.521
198501.000			-17.602			-3.520
198601.000			-17.601			-3.520
198702.000			-17.600			-3.520
198800.000			-17.601			-3.520
198900.000			-17.600			-3.520
199001.000			-17.601			-3.520
199100.000			-17.601			-3.520
199200.000			-17.600			-3.520
199300.000			-17.599			-3.520
199400.000			-17.599			-3.520
199502.000			-17.600			-3.520
199601.000			-17.600			-3.520
199701.000			-17.598			-3.520
199801.000			-17.598			-3.520
199900.000			-17.598			-3.520
200000.000			-17.598			-3.520
200101.000			-17.598			-3.520
200200.000			-17.597			-3.519
200300.000			-17.597			-3.519
200401.000			-17.597			-3.519
200501.000			-17.597			-3.519
200601.000			-17.597			-3.519
200701.000			-17.597			-3.519
200800.000			-17.597			-3.519
200900.000			-17.597			-3.519
201001.000			-17.597			-3.519
201100.000			-17.596			-3.519
201200.000			-17.597			-3.519
201301.000			-17.596			-3.519
201401.000			-17.596			-3.519
201501.000			-17.595			-3.519
201602.000			-17.595			-3.519
201700.000			-17.596			-3.519
201800.000			-17.596			-3.519
201901.000			-17.595			-3.519
202000.000			-17.595			-3.519
202100.000			-17.595			-3.519
202201.000			-17.595			-3.519
202300.000			-17.594			-3.519
202402.000			-17.594			-3.519
202501.000			-17.593			-3.519
202600.000			-17.594			-3.519
202701.000			-17.593			-3.519
202800.000			-17.593			-3.519
202900.000			-17.593			-3.519
203001.000			-17.594			-3.519
203100.000			-17.593			-3.519
203200.000			-17.593			-3.519
203302.000			-17.592			-3.518
203401.000			-17.592			-3.518
203501.000			-17.592			-3.518
203601.000			-17.591			-3.518
203700.000			-17.591			-3.518
203800.000			-17.592			-3.518
203901.000			-17.592			-3.518
204000.000			-17.592			-3.518
204100.000			-17.591			-3.518
204201.000			-17.590			-3.518
204301.000			-17.591			-3.518
204401.000			-17.591			-3.518
204501.000			-17.592			-3.518
204600.000			-17.591			-3.518
204700.000			-17.591			-3.518
204801.000			-17.590			-3.518
204900.000			-17.589			-3.518
205000.000			-17.590			-3.518
205101.000			-17.589			-3.518
205201.000			-17.589			-3.518
205301.000			-17.589			-3.518
205401.000			-17.590			-3.518
205500.000			-17.588			-3.518
205600.000			-17.588			-3.518
205700.000			-17.588			-3.518
205800.000			-17.589			-3.518
205901.000			-17.588			-3.518
206000.000			-17.588			-3.518
206100.000			-17.588			-3.518
206202.000			-17.587			-3.517
206301.000			-17.587			-3.517
206400.000			-17.587			-3.517
206501.000			-17.587			-3.517
206600.000			-17.585			-3.517
206700.000			-17.585			-3.517
206801.000			-17.587			-3.517
206900.000			-17.587			-3.517
207000.000			-17.586			-3.517
207102.000			-17.586			-3.517
207201.000			-17.586			-3.517
207300.000			-17.586			-3.517
207401.000			-17.586			-3.517
207500.000			-17.585			-3.517
207600.000			-17.585			-3.517
207701.000			-17.585			-3.517
207800.000			-17.584			-3.517
207900.000			-17.583			-3.517
208001.000			-17.583			-3.517
208101.000			-17.583			-3.517
208201.000			-17.584			-3.517
208301.000			-17.584			-3.517
208400.000			-17.584			-3.517
208500.000			-17.583			-3.517
208601.000			-17.582			-3.516
208700.000			-17.582			-3.516
208800.000			-17.582			-3.516
208900.000			-17.583			-3.517
209001.000			-17.583			-3.517
209102.000			-17.582			-3.516
209201.000			-17.582			-3.516
209300.000			-17.582			-3.516
209401.000			-17.581			-3.516
209500.000			-17.581			-3.516
209600.000			-17.582			-3.516
209701.000			-17.581			-3.516
209800.000			-17.580			-3.516
209900.000			-17.580			-3.516
210002.000			-17.581			-3.516
210101.000			-17.581			-3.516
210200.000			-17.581			-3.516
210301.000			-17.582			-3.516
210400.000			-17.579			-3.516
210500.000			-17.579			-3.516
210601.000			-17.579			-3.516
210700.000			-17.580			-3.516
210800.000			-17.579			-3.516
210902.000			-17.578			-3.516
211001.000			-17.578			-3.516
211100.000			-17.580			-3.516
211201.000			-17.580			-3.516
211300.000			-17.579			-3.516
211400.000			-17.578			-3.516
211501.000			-17.579			-3.516
211600.000			-17.578			-3.516
211700.000			-17.577			-3.515
211802.000			-17.578			-3.516
211901.000			-17.577			-3.515
212000.000			-17.577			-3.515
212100.000			-17.577			-3.515
212200.000			-17.576			-3.515
212301.000			-17.577			-3.515
212400.000			-17.578			-3.516
212500.000			-17.577			-3.515
212601.000			-17.576			-3.515
212701.000			-17.576			-3.515
212801.000			-17.576			-3.515
212902.000			-17.575			-3.515
213000.000			-17.576			-3.515
213100.000			-17.576			-3.515
213201.000			-17.576			-3.515
213300.000			-17.575			-3.515
213400.000			-17.574			-3.515
213501.000			-17.575			-3.515
213601.000			-17.575			-3.515
213701.000			-17.574			-3.515
213802.000			-17.574			-3.515
213900.000			-17.574			-3.515
214000.000			-17.574			-3.515
214101.000			-17.574			-3.515
214200.000			-17.574			-3.515
214300.000			-17.574			-3.515
214401.000			-17.573			-3.515
214500.000			-17.573			-3.515
214601.000			-17.573			-3.515
214702.000			-17.573			-3.515
214800.000			-17.573			-3.515
214900.000			-17.573			-3.515
215001.000			-17.573			-3.515
215100.000			-17.572			-3.514
215200.000			-17.571			-3.514
215300.000			-17.572			-3.514
215400.000			-17.572			-3.514
215502.000			-17.572			-3.514
215601.000			-17.572			-3.514
215701.000			-17.572			-3.514
215801.000			-17.573			-3.515
215900.000			-17.571			-3.514
216000.000			-17.571			-3.514
216101.000			-17.571			-3.514
216200.000			-17.571			-3.514
216300.000			-17.571			-3.514
216402.000			-17.572			-3.514
216501.000			-17.571			-3.514
216601.000			-17.569			-3.514
216701.000			-17.568			-3.514
216800.000			-17.569			-3.514
216900.000			-17.569			-3.514
217001.000			-17.570			-3.514
217100.000			-17.570			-3.514
217200.000			-17.569			-3.514
217301.000			-17.569			-3.514
217401.000			-17.569			-3.514
217501.000			-17.569			-3.514
217601.000			-17.569			-3.514
217700.000			-17.567			-3.513
217800.000			-17.567			-3.513
217901.000			-17.568			-3.514
218000.000			-17.568			-3.514
218100.000			-17.567			-3.513
218201.000			-17.567			-3.513
218300.000			-17.566			-3.513
218402.000			-17.567			-3.513
218501.000			-17.567			-3.513
218600.000			-17.567			-3.513
218701.000			-17.567			-3.513
218800.000			-17.567			-3.513
218900.000			-17.567			-3.513
219001.000			-17.566			-3.513
219100.000			-17.566			-3.513
219200.000			-17.566			-3.513
219302.000			-17.565			-3.513
219401.000			-17.565			-3.513
219501.000			-17.564			-3.513
219601.000			-17.565			-3.513
219700.000			-17.565			-3.513
219800.000			-17.564			-3.513
219901.000			-17.564			-3.513
220000.000			-17.565			-3.513
220100.000			-17.565			-3.513
220201.000			-17.564			-3.513
220301.000			-17.564			-3.513
220401.000			-17.565			-3.513
220501.000			-17.564			-3.513
220600.000			-17.565			-3.513
220700.000			-17.564			-3.513
220801.000			-17.563			-3.513
220900.000			-17.562			-3.512
221000.000			-17.563			-3.513
221101.000			-17.563			-3.513
221201.000			-17.563			-3.513
221301.000			-17.562			-3.512
221402.000			-17.563			-3.513
221500.000			-17.562			-3.512
221600.000			-17.561			-3.512
221700.000			-17.561			-3.512
221800.000			-17.561			-3.512
221901.000			-17.561			-3.512
222000.000			-17.561			-3.512
222101.000			-17.561			-3.512
222202.000			-17.561			-3.512
222301.000			-17.561			-3.512
222400.000			-17.561			-3.512
222501.000			-17.560			-3.512
222600.000			-17.560			-3.512
222700.000			-17.562			-3.512
222801.000			-17.560			-3.512
222900.000			-17.560			-3.512
223000.000			-17.560			-3.512
223102.000			-17.560			-3.512
223201.000			-17.559			-3.512
223300.000			-17.559			-3.512
223401.000			-17.559			-3.512
223500.000			-17.559			-3.512
223600.000			-17.559			-3.512
223701.000			-17.559			-3.512
223800.000			-17.558			-3.512
223900.000			-17.558			-3.512
224002.000			-17.557			-3.511
224101.000			-17.557			-3.511
224200.000			-17.557			-3.511
224301.000			-17.557			-3.511
224400.000			-17.558			-3.512
224500.000			-17.558			-3.512
224601.000			-17.557			-3.511
224700.000			-17.557			-3.511
224800.000			-17.557			-3.511
224900.000			-17.557			-3.511
225001.000			-17.556			-3.511
225102.000			-17.556			-3.511
225200.000			-17.556			-3.511
225300.000			-17.556			-3.511
225401.000			-17.556			-3.511
225500.000			-17.556			-3.511
225600.000			-17.555			-3.511
225701.000			-17.555			-3.511
225800.000			-17.556			-3.511
225901.000			-17.555			-3.511
226002.000			-17.555			-3.511
226100.000			-17.556			-3.511
226200.000			-17.555			-3.511
226301.000			-17.554			-3.511
226400.000			-17.555			-3.511
226500.000			-17.554			-3.511
226601.000			-17.553			-3.511
226700.000			-17.554			-3.511
226801.000			-17.554			-3.511
226902.000			-17.554			-3.511
227001.000			-17.554			-3.511
227100.000			-17.553			-3.511
227201.000			-17.553			-3.511
227300.000			-17.553			-3.511
227400.000			-17.553			-3.511
227501.000			-17.552			-3.510
227600.000			-17.553			-3.511
227700.000			-17.552			-3.510
227802.000			-17.552			-3.510
227901.000			-17.552			-3.510
228000.000			-17.553			-3.511
228100.000			-17.553			-3.511
228200.000			-17.552			-3.510
228301.000			-17.551			-3.510
228400.000			-17.551			-3.510
228500.000			-17.551			-3.510
228601.000			-17.551			-3.510
228701.000			-17.551			-3.510
228801.000			-17.550			-3.510
228901.000			-17.551			-3.510
229000.000			-17.550			-3.510
229100.000			-17.549			-3.510
229201.000			-17.550			-3.510
229300.000			-17.550			-3.510
229400.000			-17.550			-3.510
229501.000			-17.549			-3.510
229601.000			-17.549			-3.510
229701.000			-17.549			-3.510
229802.000			-17.549			-3.510
229900.000			-17.548			-3.510
230000.000			-17.548			-3.510
230101.000			-17.547			-3.509
230200.000			-17.548			-3.510
230300.000			-17.548			-3.510
230401.000			-17.548			-3.510
230500.000			-17.547			-3.509
230601.000			-17.547			-3.509
230702.000			-17.547			-3.509
230801.000			-17.548			-3.510
230900.000			-17.548			-3.510
231001.000			-17.547			-3.509
231100.000			-17.547			-3.509
231200.000			-17.546			-3.509
231300.000			-17.545			-3.509
231400.000			-17.546			-3.509
231502.000			-17.545			-3.509
231601.000			-17.546			-3.509
231701.000			-17.546			-3.509
231801.000			-17.546			-3.509
231900.000			-17.545			-3.509
232000.000			-17.545			-3.509
232101.000			-17.546			-3.509
232200.000			-17.546			-3.509
232300.000			-17.546			-3.509
232401.000			-17.544			-3.509
232501.000			-17.544			-3.509
232601.000			-17.544			-3.509
232701.000			-17.544			-3.509
232800.000			-17.544			-3.509
232900.000			-17.544			-3.509
233001.000			-17.544			-3.509
233100.000			-17.544			-3.509
233200.000			-17.544			-3.509
233301.000			-17.543			-3.509
233401.000			-17.541			-3.508
233501.000			-17.544			-3.509
233601.000			-17.544			-3.509
233700.000			-17.544			-3.509
233800.000			-17.542			-3.508
233901.000			-17.542			-3.508
234000.000			-17.542			-3.508
234100.000			-17.542			-3.508
234201.000			-17.543			-3.509
234301.000			-17.541			-3.508
234402.000			-17.542			-3.508
234500.000			-17.542			-3.508
234600.000			-17.541			-3.508
234701.000			-17.541			-3.508
234800.000			-17.540			-3.508
234900.000			-17.540			-3.508
235001.000			-17.542			-3.508
235100.000			-17.540			-3.508
235201.000			-17.541			-3.508
235302.000			-17.542			-3.508
235401.000			-17.541			-3.508
235500.000			-17.540			-3.508
235601.000			-17.540			-3.508
235700.000			-17.541			-3.508
235800.000			-17.540			-3.508
235901.000			-17.540			-3.508
236000.000			-17.540			-3.508
236100.000			-17.540			-3.508
236202.000			-17.540			-3.508
236301.000			-17.539			-3.508
236400.000			-17.539			-3.508
236501.000			-17.539			-3.508
236600.000			-17.539			-3.508
236700.000			-17.539			-3.508
236801.000			-17.538			-3.508
236900.000			-17.538			-3.508
237000.000			-17.539			-3.508
237102.000			-17.539			-3.508
237201.000			-17.539			-3.508
237301.000			-17.538			-3.508
237401.000			-17.537			-3.507
237500.000			-17.537			-3.507
237600.000			-17.537			-3.507
237700.000			-17.537			-3.507
237800.000			-17.537			-3.507
237901.000			-17.536			-3.507
238000.000			-17.537			-3.507
238101.000			-17.536			-3.507
238202.000			-17.536			-3.507
238301.000			-17.537			-3.507
238400.000			-17.537			-3.507
238501.000			-17.536			-3.507
238600.000			-17.536			-3.507
238700.000			-17.534			-3.507
238801.000			-17.534			-3.507
238900.000			-17.535			-3.507
239000.000			-17.535			-3.507
239102.000			-17.536			-3.507
239201.000			-17.536			-3.507
239301.000			-17.535			-3.507
239401.000			-17.535			-3.507
239500.000			-17.535			-3.507
239600.000			-17.535			-3.507
239701.000			-17.536			-3.507
239800.000			-17.534			-3.507
239900.000			-17.535			-3.507
240001.000			-17.533			-3.507
240101.000			-17.533			-3.507
240201.000			-17.534			-3.507
240301.000			-17.534			-3.507
240400.000			-17.533			-3.507
240500.000			-17.533			-3.507
240601.000			-17.533			-3.507
240700.000			-17.533			-3.507
240800.000			-17.532			-3.506
240900.000			-17.533			-3.507
241001.000			-17.532			-3.506
241102.000			-17.531			-3.506
241201.000			-17.532			-3.506
241300.000			-17.531			-3.506
241401.000			-17.531			-3.506
241500.000			-17.531			-3.506
241600.000			-17.531			-3.506
241701.000			-17.531			-3.506
241800.000			-17.531			-3.506
241901.000			-17.532			-3.506
242002.000			-17.531			-3.506
242101.000			-17.531			-3.506
242200.000			-17.530			-3.506
242301.000			-17.529			-3.506
242400.000			-17.530			-3.506
242500.000			-17.531			-3.506
242601.000			-17.530			-3.506
242700.000			-17.530			-3.506
242801.000			-17.529			-3.506
242902.000			-17.529			-3.506
243001.000			-17.529			-3.506
243100.000			-17.529			-3.506
243201.000			-17.531			-3.506
243300.000			-17.530			-3.506
243400.000			-17.530			-3.506
243501.000			-17.529			-3.506
243600.000			-17.529			-3.506
243700.000			-17.529			-3.506
243802.000			-17.528			-3.506
243901.000			-17.528			-3.506
244000.000			-17.528			-3.506
244100.000			-17.528			-3.506
244200.000			-17.528			-3.506
244301.000			-17.528			-3.506
244400.000			-17.528			-3.506
244500.000			-17.528			-3.506
244601.000			-17.527			-3.505
244701.000			-17.527			-3.505
244801.000			-17.527			-3.505
244902.000			-17.527			-3.505
245000.000			-17.526			-3.505
245100.000			-17.527			-3.505
245201.000			-17.527			-3.505
245300.000			-17.526			-3.505
245400.000			-17.526			-3.505
245501.000			-17.526			-3.505
245601.000			-17.525			-3.505
245701.000			-17.526			-3.505
245802.000			-17.526			-3.505
245900.000			-17.526			-3.505
246000.000			-17.526			-3.505
246101.000			-17.527			-3.505
246200.000			-17.525			-3.505
246300.000			-17.524			-3.505
246401.000			-17.524			-3.505
246500.000			-17.524			-3.505
246601.000			-17.525			-3.505
246702.000			-17.526			-3.505
246801.000			-17.525			-3.505
246900.000			-17.523			-3.505
247001.000			-17.523			-3.505
247100.000			-17.523			-3.505
247200.000			-17.523			-3.505
247300.000			-17.524			-3.505
247400.000			-17.523			-3.505
247501.000			-17.523			-3.505
247601.000			-17.524			-3.505
247701.000			-17.523			-3.505
247801.000			-17.522			-3.504
247900.000			-17.522			-3.504
248000.000			-17.522			-3.504
248101.000			-17.522			-3.504
248200.000			-17.523			-3.505
248300.000			-17.523			-3.505
248401.000			-17.522			-3.504
248501.000			-17.522			-3.504
248601.000			-17.522			-3.504
248701.000			-17.522			-3.504
248800.000			-17.522			-3.504
248900.000			-17.521			-3.504
249001.000			-17.521			-3.504
249100.000			-17.521			-3.504
249200.000			-17.521			-3.504
249301.000			-17.521			-3.504
249401.000			-17.521			-3.504
249501.000			-17.521			-3.504
249601.000			-17.521			-3.504
249700.000			-17.520			-3.504
249800.000			-17.520			-3.504
249901.000			-17.521			-3.504
250000.000			-17.520			-3.504
250100.000			-17.519			-3.504
250201.000			-17.520			-3.504
250301.000			-17.520			-3.504
250402.000			-17.519			-3.504
250501.000			-17.520			-3.504
250600.000			-17.520			-3.504
250701.000			-17.519			-3.504
250800.000			-17.518			-3.504
250900.000			-17.518			-3.504
251001.000			-17.518			-3.504
251100.000			-17.518			-3.504
251200.000			-17.519			-3.504
251302.000			-17.518			-3.504
251401.000			-17.518			-3.504
251500.000			-17.518			-3.504
251601.000			-17.518			-3.504
251700.000			-17.518			-3.504
251800.000			-17.518			-3.504
251901.000			-17.516			-3.503
252000.000			-17.517			-3.503
252100.000			-17.517			-3.503
252202.000			-17.517			-3.503
252301.000			-17.516			-3.503
252401.000			-17.517			-3.503
252501.000			-17.516			-3.503
252600.000			-17.517			-3.503
252700.000			-17.516			-3.503
252801.000			-17.516			-3.503
252900.000			-17.516			-3.503
253000.000			-17.515			-3.503
253101.000			-17.516			-3.503
253201.000			-17.515			-3.503
253301.000			-17.515			-3.503
253401.000			-17.516			-3.503
253500.000			-17.516			-3.503
253600.000			-17.515			-3.503
253700.000			-17.515			-3.503
253800.000			-17.514			-3.503
253901.000			-17.514			-3.503
254000.000			-17.514			-3.503
254101.000			-17.515			-3.503
254202.000			-17.515			-3.503
254301.000			-17.515			-3.503
254400.000			-17.515			-3.503
254501.000			-17.514			-3.503
254600.000			-17.513			-3.503
254700.000			-17.514			-3.503
254801.000			-17.514			-3.503
254900.000			-17.513			-3.503
255000.000			-17.513			-3.503
255102.000			-17.513			-3.503
255201.000			-17.513			-3.503
255300.000			-17.514			-3.503
255401.000			-17.513			-3.503
255500.000			-17.514			-3.503
255600.000			-17.512			-3.502
255701.000			-17.512			-3.502
255800.000			-17.512			-3.502
255900.000			-17.512			-3.502
256002.000			-17.511			-3.502
256101.000			-17.511			-3.502
256201.000			-17.512			-3.502
256301.000			-17.512			-3.502
256400.000			-17.512			-3.502
256500.000			-17.512			-3.502
256601.000			-17.512			-3.502
256700.000			-17.511			-3.502
256800.000			-17.511			-3.502
256900.000			-17.512			-3.502
257001.000			-17.511			-3.502
257102.000			-17.511			-3.502
257200.000			-17.510			-3.502
257300.000			-17.510			-3.502
257401.000			-17.510			-3.502
257500.000			-17.510			-3.502
257600.000			-17.509			-3.502
257701.000			-17.510			-3.502
257800.000			-17.509			-3.502
257901.000			-17.510			-3.502
258002.000			-17.509			-3.502
258101.000			-17.509			-3.502
258200.000			-17.509			-3.502
258301.000			-17.509			-3.502
258400.000			-17.509			-3.502
258500.000			-17.509			-3.502
258601.000			-17.509			-3.502
258700.000			-17.508			-3.502
258800.000			-17.508			-3.502
258902.000			-17.508			-3.502
259001.000			-17.509			-3.502
259100.000			-17.508			-3.502
259201.000			-17.508			-3.502
259300.000			-17.507			-3.501
259400.000			-17.508			-3.502
259501.000			-17.508			-3.502
259600.000			-17.507			-3.501
259700.000			-17.507			-3.501
259802.000			-17.507			-3.501
259901.000			-17.507			-3.501
260002.000			-17.507			-3.501
260100.000			-17.507			-3.501
260200.000			-17.507			-3.501
260301.000			-17.506			-3.501
260400.000			-17.505			-3.501
260500.000			-17.505			-3.501
260601.000			-17.506			-3.501
260700.000			-17.505			-3.501
260801.000			-17.506			-3.501
260902.000			-17.505			-3.501
261000.000			-17.505			-3.501
261100.000			-17.505			-3.501
261201.000			-17.505			-3.501
261300.000			-17.504			-3.501
261400.000			-17.504			-3.501
261501.000			-17.505			-3.501
261600.000			-17.505			-3.501
261701.000			-17.504			-3.501
261802.000			-17.505			-3.501
261900.000			-17.504			-3.501
262000.000			-17.503			-3.501
262101.000			-17.504			-3.501
262200.000			-17.504			-3.501
262300.000			-17.503			-3.501
262401.000			-17.503			-3.501
262500.000			-17.503			-3.501
262601.000			-17.504			-3.501
262702.000			-17.503			-3.501
262801.000			-17.502			-3.500
262900.000			-17.502			-3.500
263001.000			-17.502			-3.500
263100.000			-17.502			-3.500
263200.000			-17.503			-3.501
263300.000			-17.502			-3.500
263400.000			-17.502			-3.500
263502.000			-17.502			-3.500
263601.000			-17.502			-3.500
263700.000			-17.501			-3.500
263801.000			-17.501			-3.500
263900.000			-17.502			-3.500
264000.000			-17.502			-3.500
264101.000			-17.501			-3.500
264200.000			-17.501			-3.500
264300.000			-17.502			-3.500
264402.000			-17.501			-3.500
264501.000			-17.500			-3.500
264600.000			-17.501			-3.500
264701.000			-17.501			-3.500
264800.000			-17.500			-3.500
264900.000			-17.501			-3.500
265001.000			-17.502			-3.500
265100.000			-17.501			-3.500
265200.000			-17.500			-3.500
265302.000			-17.501			-3.500
265401.000			-17.501			-3.500
265501.000			-17.501			-3.500
265601.000			-17.502			-3.500
265700.000			-17.501			-3.500
265800.000			-17.501			-3.500
265901.000			-17.496			-3.499
266000.000			-17.497			-3.499
266100.000			-17.497			-3.499
266201.000			-17.498			-3.500
266301.000			-17.498			-3.500
266402.000			-17.498			-3.500
266500.000			-17.497			-3.499
266600.000			-17.497			-3.499
266701.000			-17.498			-3.500
266800.000			-17.497			-3.499
266900.000			-17.498			-3.500
267001.000			-17.497			-3.499
267100.000			-17.497			-3.499
267200.000			-17.497			-3.499
267302.000			-17.498			-3.500
267401.000			-17.498			-3.500
267500.000			-17.497			-3.499
267601.000			-17.497			-3.499
267700.000			-17.497			-3.499
267800.000			-17.497			-3.499
267901.000			-17.497			-3.499
268000.000			-17.497			-3.499
268100.000			-17.497			-3.499
268201.000			-17.498			-3.500
268301.000			-17.497			-3.499
268401.000			-17.497			-3.499
268501.000			-17.498			-3.500
268600.000			-17.498			-3.500
268700.000			-17.497			-3.499
268801.000			-17.496			-3.499
268900.000			-17.498			-3.500
269000.000			-17.497			-3.499
269101.000			-17.496			-3.499
269201.000			-17.496			-3.499
269301.000			-17.496			-3.499
269402.000			-17.497			-3.499
269500.000			-17.496			-3.499
269600.000			-17.496			-3.499
269700.000			-17.496			-3.499
269800.000			-17.496			-3.499
269901.000			-17.496			-3.499
270000.000			-17.495			-3.499
270100.000			-17.495			-3.499
270202.000			-17.494			-3.499
270301.000			-17.494			-3.499
270401.000			-17.494			-3.499
270501.000			-17.496			-3.499
270600.000			-17.496			-3.499
270700.000			-17.496			-3.499
270801.000			-17.495			-3.499
270900.000			-17.495			-3.499
271000.000			-17.494			-3.499
271101.000			-17.494			-3.499
271201.000			-17.494			-3.499
271301.000			-17.494			-3.499
271401.000			-17.494			-3.499
271500.000			-17.494			-3.499
271600.000			-17.493			-3.499
271701.000			-17.492			-3.498
271800.000			-17.494			-3.499
271900.000			-17.493			-3.499
272001.000			-17.493			-3.499
272101.000			-17.492			-3.498
272201.000			-17.493			-3.499
272302.000			-17.493			-3.499
272400.000			-17.493			-3.499
272500.000			-17.494			-3.499
272601.000			-17.493			-3.499
272700.000			-17.492			-3.498
272800.000			-17.492			-3.498
272900.000			-17.492			-3.498
273000.000			-17.492			-3.498
273102.000			-17.493			-3.499
273201.000			-17.494			-3.499
273300.000			-17.492			-3.498
273401.000			-17.492			-3.498
273500.000			-17.490			-3.498
273600.000			-17.490			-3.498
273701.000			-17.491			-3.498
273800.000			-17.491			-3.498
273900.000			-17.490			-3.498
274002.000			-17.491			-3.498
274101.000			-17.490			-3.498
274201.000			-17.490			-3.498
274301.000			-17.490			-3.498
274400.000			-17.490			-3.498
274500.000			-17.489			-3.498
274601.000			-17.489			-3.498
274700.000			-17.489			-3.498
274800.000			-17.490			-3.498
274901.000			-17.490			-3.498
275001.000			-17.490			-3.498
275101.000			-17.490			-3.498
275202.000			-17.489			-3.498
275300.000			-17.489			-3.498
275400.000			-17.490			-3.498
275501.000			-17.487			-3.497
275600.000			-17.488			-3.498
275700.000			-17.489			-3.498
275801.000			-17.488			-3.498
275900.000			-17.488			-3.498
276002.000			-17.488			-3.498
276101.000			-17.488			-3.498
276201.000			-17.488			-3.498
276301.000			-17.488			-3.498
276400.000			-17.486			-3.497
276500.000			-17.487			-3.497
276601.000			-17.487			-3.497
276700.000			-17.487			-3.497
276800.000			-17.487			-3.497
276901.000			-17.487			-3.497
277001.000			-17.487			-3.497
277101.000			-17.487			-3.497
277202.000			-17.487			-3.497
277300.000			-17.487			-3.497
277400.000			-17.487			-3.497
277501.000			-17.486			-3.497
277600.000			-17.487			-3.497
277700.000			-17.485			-3.497
277801.000			-17.485			-3.497
277900.000			-17.485			-3.497
278001.000			-17.485			-3.497
278102.000			-17.485			-3.497
278201.000			-17.484			-3.497
278300.000			-17.484			-3.497
278401.000			-17.485			-3.497
278500.000			-17.485			-3.497
278600.000			-17.484			-3.497
278701.000			-17.483			-3.497
278800.000			-17.485			-3.497
278900.000			-17.485			-3.497
279002.000			-17.485			-3.497
279101.000			-17.484			-3.497
279202.000			-17.483			-3.497
279300.000			-17.484			-3.497
279400.000			-17.484			-3.497
279501.000			-17.483			-3.497
279600.000			-17.482			-3.496
279700.000			-17.484			-3.497
279801.000			-17.485			-3.497
279900.000			-17.483			-3.497
280001.000			-17.484			-3.497
280102.000			-17.483			-3.497
280201.000			-17.483			-3.497
280300.000			-17.483			-3.497
280401.000			-17.482			-3.496
280500.000			-17.482			-3.496
280600.000			-17.482			-3.496
280701.000			-17.482			-3.496
280800.000			-17.481			-3.496
280900.000			-17.481			-3.496
281002.000			-17.481			-3.496
281101.000			-17.481			-3.496
281200.000			-17.482			-3.496
281301.000			-17.481			-3.496
281400.000			-17.481			-3.496
281500.000			-17.481			-3.496
281601.000			-17.481			-3.496
281700.000			-17.480			-3.496
281800.000			-17.480			-3.496
281902.000			-17.480			-3.496
282001.000			-17.480			-3.496
282101.000			-17.479			-3.496
282201.000			-17.479			-3.496
282300.000			-17.479			-3.496
282400.000			-17.479			-3.496
282500.000			-17.479			-3.496
282600.000			-17.479			-3.496
282701.000			-17.480			-3.496
282800.000			-17.480			-3.496
282901.000			-17.479			-3.496
283002.000			-17.479			-3.496
283101.000			-17.478			-3.496
283200.000			-17.479			-3.496
283301.000			-17.479			-3.496
283400.000			-17.479			-3.496
283500.000			-17.478			-3.496
283601.000			-17.478			-3.496
283700.000			-17.477			-3.495
283800.000			-17.477			-3.495
283902.000			-17.478			-3.496
284001.000			-17.478			-3.496
284100.000			-17.478			-3.496
284201.000			-17.478			-3.496
284300.000			-17.476			-3.495
284400.000			-17.476			-3.495
284501.000			-17.476			-3.495
284600.000			-17.477			-3.495
284700.000			-17.477			-3.495
284802.000			-17.477			-3.495
284901.000			-17.477			-3.495
285001.000			-17.477			-3.495
285101.000			-17.475			-3.495
285200.000			-17.475			-3.495
285300.000			-17.474			-3.495
285401.000			-17.475			-3.495
285500.000			-17.476			-3.495
285600.000			-17.476			-3.495
285700.000			-17.476			-3.495
285800.000			-17.476			-3.495
285902.000			-17.475			-3.495
286001.000			-17.475			-3.495
286100.000			-17.475			-3.495
286201.000			-17.475			-3.495
286300.000			-17.474			-3.495
286400.000			-17.473			-3.495
286501.000			-17.474			-3.495
286600.000			-17.474			-3.495
286700.000			-17.473			-3.495
286802.000			-17.473			-3.495
286901.000			-17.473			-3.495
287001.000			-17.474			-3.495
287101.000			-17.474			-3.495
287200.000			-17.474			-3.495
287300.000			-17.473			-3.495
287401.000			-17.473			-3.495
287500.000			-17.473			-3.495
287600.000			-17.473			-3.495
287701.000			-17.472			-3.494
287801.000			-17.472			-3.494
287901.000			-17.472			-3.494
288001.000			-17.472			-3.494
288100.000			-17.472			-3.494
288200.000			-17.472			-3.494
288301.000			-17.472			-3.494
288400.000			-17.471			-3.494
288500.000			-17.471			-3.494
288601.000			-17.472			-3.494
288701.000			-17.473			-3.495
288802.000			-17.471			-3.494
288901.000			-17.470			-3.494
289000.000			-17.470			-3.494
289101.000			-17.470			-3.494
289200.000			-17.471			-3.494
289300.000			-17.470			-3.494
289401.000			-17.470			-3.494
289500.000			-17.471			-3.494
289600.000			-17.470			-3.494
289702.000			-17.470			-3.494
289801.000			-17.470			-3.494
289901.000			-17.470			-3.494
290001.000			-17.469			-3.494
290100.000			-17.468			-3.494
290200.000			-17.470			-3.494
290301.000			-17.469			-3.494
290400.000			-17.468			-3.494
290500.000			-17.468			-3.494
290601.000			-17.470			-3.494
290701.000			-17.470			-3.494
290801.000			-17.470			-3.494
290902.000			-17.469			-3.494
291000.000			-17.469			-3.494
291100.000			-17.470			-3.494
291201.000			-17.468			-3.494
291300.000			-17.469			-3.494
291400.000			-17.469			-3.494
291501.000			-17.468			-3.494
291600.000			-17.469			-3.494
291701.000			-17.467			-3.493
291802.000			-17.467			-3.493
291900.000			-17.468			-3.494
292000.000			-17.469			-3.494
292100.000			-17.468			-3.494
292200.000			-17.468			-3.494
292301.000			-17.468			-3.494
292400.000			-17.467			-3.493
292500.000			-17.467			-3.493
292602.000			-17.467			-3.493
292701.000			-17.467			-3.493
292801.000			-17.466			-3.493
292901.000			-17.466			-3.493
293000.000			-17.466			-3.493
293100.000			-17.465			-3.493
293201.000			-17.466			-3.493
293300.000			-17.466			-3.493
293400.000			-17.465			-3.493
293501.000			-17.465			-3.493
293601.000			-17.466			-3.493
293701.000			-17.465			-3.493
293802.000			-17.464			-3.493
293900.000			-17.464			-3.493
294000.000			-17.465			-3.493
294101.000			-17.465			-3.493
294200.000			-17.465			-3.493
294300.000			-17.464			-3.493
294401.000			-17.464			-3.493
294500.000			-17.464			-3.493
294601.000			-17.464			-3.493
294702.000			-17.465			-3.493
294800.000			-17.464			-3.493
294900.000			-17.463			-3.493
295001.000			-17.463			-3.493
295100.000			-17.464			-3.493
295200.000			-17.464			-3.493
295300.000			-17.465			-3.493
295400.000			-17.462			-3.492
295501.000			-17.462			-3.492
295601.000			-17.463			-3.493
295701.000			-17.463			-3.493
295801.000			-17.463			-3.493
295900.000			-17.463			-3.493
296000.000			-17.462			-3.492
296101.000			-17.461			-3.492
296200.000			-17.461			-3.492
296300.000			-17.462			-3.492
296401.000			-17.461			-3.492
296501.000			-17.460			-3.492
296601.000			-17.461			-3.492
296702.000			-17.461			-3.492
296800.000			-17.461			-3.492
296900.000			-17.461			-3.492
297001.000			-17.461			-3.492
297100.000			-17.461			-3.492
297200.000			-17.461			-3.492
297301.000			-17.461			-3.492
297400.000			-17.460			-3.492
297501.000			-17.460			-3.492
297602.000			-17.460			-3.492
297701.000			-17.460			-3.492
297800.000			-17.460			-3.492
297901.000			-17.459			-3.492
298000.000			-17.459			-3.492
298100.000			-17.459			-3.492
298201.000			-17.459			-3.492
298300.000			-17.459			-3.492
298400.000			-17.459			-3.492
298502.000			-17.459			-3.492
298601.000			-17.457			-3.491
298701.000			-17.457			-3.491
298800.000			-17.458			-3.492
298900.000			-17.458			-3.492
299001.000			-17.458			-3.492
299100.000			-17.458			-3.492
299200.000			-17.457			-3.491
299301.000			-17.457			-3.491
299400.000			-17.457			-3.491
299501.000			-17.457			-3.491
299602.000			-17.458			-3.492
299701.000			-17.458			-3.492
299800.000			-17.458			-3.492
299901.000			-17.457			-3.491
