# Acquired on 10/01/2024 17:00:23 
# SPIDER: Creep_9mm_07714532C-1
# CREEP MEASUREMENT

# time [ms]		force [N]		stiffness [N/mm]
1.000			-16.579			-1.842
100.000			-17.497			-1.944
200.000			-17.899			-1.989
301.000			-17.939			-1.993
400.000			-17.777			-1.975
500.000			-17.717			-1.969
602.000			-17.667			-1.963
701.000			-17.623			-1.958
800.000			-17.586			-1.954
901.000			-17.551			-1.950
1000.000			-17.520			-1.947
1100.000			-17.466			-1.941
1200.000			-17.441			-1.938
1300.000			-17.418			-1.935
1402.000			-17.397			-1.933
1501.000			-17.377			-1.931
1600.000			-17.357			-1.929
1701.000			-17.339			-1.927
1800.000			-17.306			-1.923
1900.000			-17.290			-1.921
2001.000			-17.275			-1.919
2100.000			-17.261			-1.918
2201.000			-17.246			-1.916
2301.000			-17.233			-1.915
2400.000			-17.220			-1.913
2500.000			-17.196			-1.911
2601.000			-17.184			-1.909
2700.000			-17.173			-1.908
2800.000			-17.162			-1.907
2902.000			-17.152			-1.906
3001.000			-17.142			-1.905
3100.000			-17.132			-1.904
3201.000			-17.122			-1.902
3300.000			-17.104			-1.900
3400.000			-17.095			-1.899
3501.000			-17.086			-1.898
3600.000			-17.077			-1.897
3701.000			-17.069			-1.897
3802.000			-17.061			-1.896
3900.000			-17.053			-1.895
4000.000			-17.038			-1.893
4101.000			-17.030			-1.892
4200.000			-17.023			-1.891
4300.000			-17.015			-1.891
4402.000			-17.007			-1.890
4501.000			-17.000			-1.889
4601.000			-16.994			-1.888
4700.000			-16.981			-1.887
4800.000			-16.975			-1.886
4901.000			-16.969			-1.885
5000.000			-16.963			-1.885
5100.000			-16.957			-1.884
5202.000			-16.951			-1.883
5301.000			-16.944			-1.883
5400.000			-16.933			-1.881
5501.000			-16.927			-1.881
5600.000			-16.921			-1.880
5700.000			-16.917			-1.880
5801.000			-16.912			-1.879
5900.000			-16.908			-1.879
6001.000			-16.902			-1.878
6102.000			-16.896			-1.877
6200.000			-16.886			-1.876
6300.000			-16.880			-1.876
6401.000			-16.875			-1.875
6500.000			-16.870			-1.874
6600.000			-16.867			-1.874
6701.000			-16.862			-1.874
6801.000			-16.858			-1.873
6901.000			-16.850			-1.872
7001.000			-16.845			-1.872
7100.000			-16.839			-1.871
7200.000			-16.835			-1.871
7301.000			-16.830			-1.870
7400.000			-16.827			-1.870
7502.000			-16.822			-1.869
7601.000			-16.813			-1.868
7700.000			-16.809			-1.868
7801.000			-16.806			-1.867
7900.000			-16.802			-1.867
8000.000			-16.798			-1.866
8101.000			-16.793			-1.866
8200.000			-16.791			-1.866
8301.000			-16.782			-1.865
8402.000			-16.779			-1.864
8500.000			-16.776			-1.864
8600.000			-16.772			-1.864
8701.000			-16.769			-1.863
8800.000			-16.765			-1.863
8900.000			-16.760			-1.862
9001.000			-16.758			-1.862
9101.000			-16.751			-1.861
9201.000			-16.747			-1.861
9301.000			-16.744			-1.860
9400.000			-16.739			-1.860
9500.000			-16.736			-1.860
9601.000			-16.733			-1.859
9700.000			-16.729			-1.859
9800.000			-16.723			-1.858
9902.000			-16.720			-1.858
10001.000			-16.718			-1.858
10100.000			-16.716			-1.857
10201.000			-16.712			-1.857
10300.000			-16.707			-1.856
10400.000			-16.704			-1.856
10501.000			-16.699			-1.855
10601.000			-16.696			-1.855
10702.000			-16.694			-1.855
10801.000			-16.690			-1.854
10900.000			-16.687			-1.854
11001.000			-16.685			-1.854
11100.000			-16.682			-1.854
11200.000			-16.679			-1.853
11301.000			-16.674			-1.853
11400.000			-16.670			-1.852
11501.000			-16.667			-1.852
11602.000			-16.665			-1.852
11700.000			-16.662			-1.851
11800.000			-16.660			-1.851
11901.000			-16.657			-1.851
12000.000			-16.650			-1.850
12100.000			-16.648			-1.850
12202.000			-16.646			-1.850
12301.000			-16.644			-1.849
12401.000			-16.641			-1.849
12501.000			-16.639			-1.849
12600.000			-16.636			-1.848
12700.000			-16.630			-1.848
12801.000			-16.627			-1.847
12900.000			-16.625			-1.847
13000.000			-16.623			-1.847
13102.000			-16.620			-1.847
13201.000			-16.619			-1.847
13300.000			-16.615			-1.846
13401.000			-16.612			-1.846
13500.000			-16.609			-1.845
13600.000			-16.606			-1.845
13701.000			-16.604			-1.845
13801.000			-16.602			-1.845
13902.000			-16.600			-1.844
14001.000			-16.597			-1.844
14100.000			-16.593			-1.844
14201.000			-16.591			-1.843
14300.000			-16.587			-1.843
14400.000			-16.586			-1.843
14501.000			-16.585			-1.843
14600.000			-16.583			-1.843
14701.000			-16.581			-1.842
14802.000			-16.579			-1.842
14900.000			-16.575			-1.842
15000.000			-16.572			-1.841
15101.000			-16.570			-1.841
15200.000			-16.567			-1.841
15300.000			-16.565			-1.841
15401.000			-16.564			-1.840
15501.000			-16.561			-1.840
15601.000			-16.557			-1.840
15701.000			-16.554			-1.839
15800.000			-16.553			-1.839
15900.000			-16.552			-1.839
16001.000			-16.550			-1.839
16100.000			-16.548			-1.839
16200.000			-16.546			-1.838
16302.000			-16.541			-1.838
16401.000			-16.539			-1.838
16500.000			-16.537			-1.837
16601.000			-16.536			-1.837
16700.000			-16.535			-1.837
16800.000			-16.532			-1.837
16901.000			-16.529			-1.837
17000.000			-16.527			-1.836
17102.000			-16.524			-1.836
17201.000			-16.521			-1.836
17300.000			-16.520			-1.836
17401.000			-16.518			-1.835
17500.000			-16.517			-1.835
17600.000			-16.515			-1.835
17701.000			-16.513			-1.835
17800.000			-16.509			-1.834
17901.000			-16.508			-1.834
18002.000			-16.506			-1.834
18100.000			-16.504			-1.834
18200.000			-16.502			-1.834
18301.000			-16.501			-1.833
18400.000			-16.499			-1.833
18500.000			-16.496			-1.833
18601.000			-16.493			-1.833
18701.000			-16.493			-1.833
18801.000			-16.491			-1.832
18901.000			-16.488			-1.832
19000.000			-16.487			-1.832
19100.000			-16.486			-1.832
19201.000			-16.482			-1.831
19300.000			-16.480			-1.831
19400.000			-16.479			-1.831
19502.000			-16.477			-1.831
19601.000			-16.475			-1.831
19700.000			-16.474			-1.830
19801.000			-16.472			-1.830
19900.000			-16.471			-1.830
20000.000			-16.468			-1.830
20101.000			-16.467			-1.830
20200.000			-16.464			-1.829
20302.000			-16.462			-1.829
20401.000			-16.461			-1.829
20500.000			-16.459			-1.829
20601.000			-16.458			-1.829
20700.000			-16.454			-1.828
20800.000			-16.453			-1.828
20901.000			-16.451			-1.828
21000.000			-16.450			-1.828
21101.000			-16.448			-1.828
21202.000			-16.447			-1.827
21300.000			-16.446			-1.827
21400.000			-16.443			-1.827
21501.000			-16.442			-1.827
21600.000			-16.439			-1.827
21700.000			-16.438			-1.826
21801.000			-16.436			-1.826
21901.000			-16.434			-1.826
22001.000			-16.433			-1.826
22101.000			-16.431			-1.826
22200.000			-16.429			-1.825
22300.000			-16.428			-1.825
22401.000			-16.427			-1.825
22500.000			-16.425			-1.825
22601.000			-16.422			-1.825
22702.000			-16.421			-1.825
22800.000			-16.420			-1.824
22900.000			-16.418			-1.824
23001.000			-16.416			-1.824
23100.000			-16.415			-1.824
23200.000			-16.414			-1.824
23301.000			-16.413			-1.824
23401.000			-16.411			-1.823
23502.000			-16.409			-1.823
23600.000			-16.407			-1.823
23700.000			-16.405			-1.823
23801.000			-16.405			-1.823
23900.000			-16.404			-1.823
24000.000			-16.403			-1.823
24101.000			-16.400			-1.822
24201.000			-16.399			-1.822
24301.000			-16.396			-1.822
24401.000			-16.395			-1.822
24500.000			-16.394			-1.822
24600.000			-16.392			-1.821
24701.000			-16.391			-1.821
24800.000			-16.390			-1.821
24900.000			-16.389			-1.821
25002.000			-16.385			-1.821
25101.000			-16.384			-1.820
25200.000			-16.383			-1.820
25301.000			-16.382			-1.820
25400.000			-16.381			-1.820
25500.000			-16.380			-1.820
25601.000			-16.379			-1.820
25700.000			-16.378			-1.820
25801.000			-16.373			-1.819
25902.000			-16.372			-1.819
26000.000			-16.371			-1.819
26100.000			-16.370			-1.819
26201.000			-16.368			-1.819
26300.000			-16.368			-1.819
26400.000			-16.366			-1.818
26501.000			-16.365			-1.818
26601.000			-16.364			-1.818
26702.000			-16.363			-1.818
26801.000			-16.362			-1.818
26900.000			-16.360			-1.818
27001.000			-16.358			-1.818
27100.000			-16.358			-1.818
27200.000			-16.355			-1.817
27301.000			-16.354			-1.817
27401.000			-16.352			-1.817
27501.000			-16.351			-1.817
27601.000			-16.350			-1.817
27700.000			-16.348			-1.816
27800.000			-16.348			-1.816
27901.000			-16.345			-1.816
28000.000			-16.344			-1.816
28100.000			-16.343			-1.816
28202.000			-16.342			-1.816
28301.000			-16.340			-1.816
28401.000			-16.340			-1.816
28501.000			-16.339			-1.815
28600.000			-16.338			-1.815
28700.000			-16.335			-1.815
28801.000			-16.334			-1.815
28900.000			-16.333			-1.815
29000.000			-16.331			-1.815
29102.000			-16.330			-1.814
29201.000			-16.329			-1.814
29300.000			-16.328			-1.814
29401.000			-16.327			-1.814
29500.000			-16.326			-1.814
29600.000			-16.324			-1.814
29701.000			-16.323			-1.814
29801.000			-16.322			-1.814
29902.000			-16.321			-1.813
30001.000			-16.320			-1.813
30100.000			-16.318			-1.813
30201.000			-16.317			-1.813
30300.000			-16.315			-1.813
30400.000			-16.314			-1.813
30501.000			-16.314			-1.813
30601.000			-16.313			-1.813
30701.000			-16.310			-1.812
30801.000			-16.310			-1.812
30900.000			-16.308			-1.812
31000.000			-16.307			-1.812
31101.000			-16.306			-1.812
31200.000			-16.304			-1.812
31300.000			-16.303			-1.811
31402.000			-16.303			-1.811
31501.000			-16.302			-1.811
31600.000			-16.300			-1.811
31701.000			-16.299			-1.811
31800.000			-16.297			-1.811
31900.000			-16.296			-1.811
32001.000			-16.295			-1.811
32100.000			-16.295			-1.811
32201.000			-16.293			-1.810
32302.000			-16.291			-1.810
32400.000			-16.290			-1.810
32500.000			-16.289			-1.810
32601.000			-16.288			-1.810
32700.000			-16.287			-1.810
32800.000			-16.287			-1.810
32901.000			-16.286			-1.810
33001.000			-16.284			-1.809
33102.000			-16.283			-1.809
33200.000			-16.281			-1.809
33300.000			-16.281			-1.809
33401.000			-16.280			-1.809
33500.000			-16.278			-1.809
33600.000			-16.277			-1.809
33701.000			-16.275			-1.808
33801.000			-16.275			-1.808
33901.000			-16.274			-1.808
34001.000			-16.273			-1.808
34100.000			-16.272			-1.808
34200.000			-16.270			-1.808
34301.000			-16.269			-1.808
34400.000			-16.270			-1.808
34500.000			-16.268			-1.808
34602.000			-16.266			-1.807
34701.000			-16.264			-1.807
34800.000			-16.264			-1.807
34901.000			-16.263			-1.807
35000.000			-16.263			-1.807
35100.000			-16.262			-1.807
35201.000			-16.259			-1.807
35300.000			-16.257			-1.806
35401.000			-16.256			-1.806
35502.000			-16.256			-1.806
35600.000			-16.255			-1.806
35700.000			-16.253			-1.806
35801.000			-16.253			-1.806
35900.000			-16.253			-1.806
36000.000			-16.252			-1.806
36101.000			-16.250			-1.806
36201.000			-16.248			-1.805
36302.000			-16.248			-1.805
36400.000			-16.247			-1.805
36500.000			-16.247			-1.805
36601.000			-16.245			-1.805
36700.000			-16.245			-1.805
36800.000			-16.244			-1.805
36901.000			-16.242			-1.805
37001.000			-16.242			-1.805
37101.000			-16.241			-1.805
37201.000			-16.241			-1.805
37300.000			-16.239			-1.804
37400.000			-16.237			-1.804
37501.000			-16.236			-1.804
37600.000			-16.235			-1.804
37700.000			-16.234			-1.804
37802.000			-16.233			-1.804
37901.000			-16.233			-1.804
38000.000			-16.232			-1.804
38101.000			-16.230			-1.803
38200.000			-16.230			-1.803
38300.000			-16.229			-1.803
38401.000			-16.228			-1.803
38501.000			-16.227			-1.803
38601.000			-16.226			-1.803
38701.000			-16.224			-1.803
38800.000			-16.223			-1.803
38900.000			-16.222			-1.802
39001.000			-16.221			-1.802
39100.000			-16.221			-1.802
39200.000			-16.221			-1.802
39302.000			-16.219			-1.802
39401.000			-16.219			-1.802
39500.000			-16.217			-1.802
39600.000			-16.216			-1.802
39700.000			-16.215			-1.802
39801.000			-16.214			-1.802
39900.000			-16.214			-1.802
40000.000			-16.212			-1.801
40102.000			-16.212			-1.801
40201.000			-16.211			-1.801
40300.000			-16.210			-1.801
40401.000			-16.210			-1.801
40500.000			-16.209			-1.801
40600.000			-16.208			-1.801
40701.000			-16.207			-1.801
40800.000			-16.205			-1.801
40901.000			-16.205			-1.801
41002.000			-16.203			-1.800
41100.000			-16.202			-1.800
41200.000			-16.201			-1.800
41301.000			-16.200			-1.800
41400.000			-16.200			-1.800
41500.000			-16.199			-1.800
41601.000			-16.199			-1.800
41701.000			-16.197			-1.800
41801.000			-16.196			-1.800
41901.000			-16.195			-1.799
42000.000			-16.194			-1.799
42100.000			-16.193			-1.799
42201.000			-16.193			-1.799
42300.000			-16.192			-1.799
42400.000			-16.190			-1.799
42502.000			-16.190			-1.799
42601.000			-16.190			-1.799
42700.000			-16.188			-1.799
42800.000			-16.187			-1.799
42900.000			-16.187			-1.799
43001.000			-16.187			-1.799
43100.000			-16.186			-1.798
43200.000			-16.184			-1.798
43302.000			-16.183			-1.798
43401.000			-16.181			-1.798
43500.000			-16.181			-1.798
43601.000			-16.181			-1.798
43700.000			-16.179			-1.798
43800.000			-16.178			-1.798
43901.000			-16.178			-1.798
44000.000			-16.178			-1.798
44101.000			-16.176			-1.797
44202.000			-16.175			-1.797
44300.000			-16.174			-1.797
44400.000			-16.174			-1.797
44501.000			-16.174			-1.797
44600.000			-16.172			-1.797
44700.000			-16.171			-1.797
44801.000			-16.170			-1.797
44901.000			-16.170			-1.797
45001.000			-16.169			-1.797
45101.000			-16.168			-1.796
45200.000			-16.168			-1.796
45300.000			-16.166			-1.796
45401.000			-16.166			-1.796
45500.000			-16.164			-1.796
45600.000			-16.162			-1.796
45702.000			-16.162			-1.796
45801.000			-16.163			-1.796
45900.000			-16.162			-1.796
46000.000			-16.161			-1.796
46100.000			-16.159			-1.795
46201.000			-16.159			-1.795
46300.000			-16.158			-1.795
46400.000			-16.157			-1.795
46502.000			-16.156			-1.795
46601.000			-16.156			-1.795
46700.000			-16.155			-1.795
46801.000			-16.153			-1.795
46900.000			-16.152			-1.795
47000.000			-16.153			-1.795
47101.000			-16.152			-1.795
47200.000			-16.151			-1.795
47301.000			-16.150			-1.794
47402.000			-16.149			-1.794
47500.000			-16.147			-1.794
47600.000			-16.146			-1.794
47701.000			-16.147			-1.794
47800.000			-16.146			-1.794
47900.000			-16.145			-1.794
48001.000			-16.145			-1.794
48101.000			-16.145			-1.794
48201.000			-16.143			-1.794
48301.000			-16.143			-1.794
48400.000			-16.142			-1.794
48500.000			-16.141			-1.793
48601.000			-16.141			-1.793
48700.000			-16.140			-1.793
48800.000			-16.138			-1.793
48902.000			-16.137			-1.793
49001.000			-16.137			-1.793
49100.000			-16.136			-1.793
49200.000			-16.135			-1.793
49300.000			-16.134			-1.793
49401.000			-16.134			-1.793
49500.000			-16.133			-1.793
49600.000			-16.132			-1.792
49702.000			-16.131			-1.792
49801.000			-16.130			-1.792
49900.000			-16.130			-1.792
50001.000			-16.130			-1.792
50100.000			-16.129			-1.792
50200.000			-16.128			-1.792
50301.000			-16.128			-1.792
50400.000			-16.126			-1.792
50501.000			-16.126			-1.792
50602.000			-16.124			-1.792
50700.000			-16.124			-1.792
50800.000			-16.122			-1.791
50901.000			-16.123			-1.791
51000.000			-16.122			-1.791
51100.000			-16.120			-1.791
51201.000			-16.119			-1.791
51301.000			-16.119			-1.791
51401.000			-16.119			-1.791
51501.000			-16.119			-1.791
51600.000			-16.118			-1.791
51700.000			-16.117			-1.791
51801.000			-16.116			-1.791
51900.000			-16.114			-1.790
52001.000			-16.113			-1.790
52102.000			-16.114			-1.790
52200.000			-16.113			-1.790
52300.000			-16.112			-1.790
52400.000			-16.112			-1.790
52500.000			-16.110			-1.790
52601.000			-16.109			-1.790
52700.000			-16.109			-1.790
52801.000			-16.108			-1.790
52902.000			-16.108			-1.790
53000.000			-16.108			-1.790
53100.000			-16.107			-1.790
53201.000			-16.106			-1.790
53300.000			-16.106			-1.790
53400.000			-16.104			-1.789
53501.000			-16.103			-1.789
53601.000			-16.103			-1.789
53701.000			-16.103			-1.789
53801.000			-16.102			-1.789
53900.000			-16.101			-1.789
54000.000			-16.098			-1.789
54101.000			-16.099			-1.789
54200.000			-16.099			-1.789
54300.000			-16.098			-1.789
54402.000			-16.097			-1.789
54501.000			-16.096			-1.788
54600.000			-16.096			-1.788
54701.000			-16.095			-1.788
54800.000			-16.094			-1.788
54900.000			-16.093			-1.788
55001.000			-16.093			-1.788
55100.000			-16.092			-1.788
55201.000			-16.091			-1.788
55302.000			-16.091			-1.788
55400.000			-16.090			-1.788
55500.000			-16.089			-1.788
55600.000			-16.088			-1.788
55700.000			-16.087			-1.787
55801.000			-16.087			-1.787
55900.000			-16.086			-1.787
56001.000			-16.086			-1.787
56102.000			-16.087			-1.787
56200.000			-16.085			-1.787
56300.000			-16.084			-1.787
56401.000			-16.084			-1.787
56500.000			-16.084			-1.787
56600.000			-16.082			-1.787
56701.000			-16.082			-1.787
56801.000			-16.081			-1.787
56901.000			-16.080			-1.787
57001.000			-16.080			-1.787
57100.000			-16.079			-1.787
57200.000			-16.079			-1.787
57301.000			-16.078			-1.786
57400.000			-16.078			-1.786
57500.000			-16.077			-1.786
57602.000			-16.076			-1.786
57701.000			-16.075			-1.786
57800.000			-16.075			-1.786
57901.000			-16.074			-1.786
58000.000			-16.073			-1.786
58100.000			-16.072			-1.786
58201.000			-16.072			-1.786
58300.000			-16.072			-1.786
58401.000			-16.070			-1.786
58502.000			-16.070			-1.786
58600.000			-16.070			-1.786
58700.000			-16.069			-1.785
58800.000			-16.068			-1.785
58900.000			-16.067			-1.785
59001.000			-16.067			-1.785
59100.000			-16.066			-1.785
59201.000			-16.065			-1.785
59302.000			-16.064			-1.785
59400.000			-16.065			-1.785
59500.000			-16.064			-1.785
59601.000			-16.063			-1.785
59700.000			-16.063			-1.785
59800.000			-16.063			-1.785
59901.000			-16.061			-1.785
60001.000			-16.060			-1.784
60101.000			-16.061			-1.785
60201.000			-16.060			-1.784
60300.000			-16.058			-1.784
60400.000			-16.058			-1.784
60501.000			-16.058			-1.784
60600.000			-16.057			-1.784
60700.000			-16.057			-1.784
60802.000			-16.057			-1.784
60901.000			-16.055			-1.784
61000.000			-16.055			-1.784
61101.000			-16.054			-1.784
61200.000			-16.053			-1.784
61300.000			-16.053			-1.784
61401.000			-16.051			-1.783
61501.000			-16.050			-1.783
61601.000			-16.049			-1.783
61701.000			-16.049			-1.783
61800.000			-16.049			-1.783
61900.000			-16.049			-1.783
62000.000			-16.049			-1.783
62100.000			-16.048			-1.783
62201.000			-16.046			-1.783
62301.000			-16.046			-1.783
62401.000			-16.046			-1.783
62501.000			-16.045			-1.783
62600.000			-16.045			-1.783
62700.000			-16.045			-1.783
62801.000			-16.044			-1.783
62900.000			-16.043			-1.783
63000.000			-16.042			-1.782
63102.000			-16.042			-1.782
63201.000			-16.041			-1.782
63300.000			-16.040			-1.782
63401.000			-16.040			-1.782
63500.000			-16.039			-1.782
63600.000			-16.038			-1.782
63701.000			-16.038			-1.782
63800.000			-16.037			-1.782
63901.000			-16.037			-1.782
64002.000			-16.037			-1.782
64100.000			-16.037			-1.782
64200.000			-16.036			-1.782
64301.000			-16.034			-1.782
64400.000			-16.034			-1.782
64500.000			-16.034			-1.782
64601.000			-16.034			-1.782
64701.000			-16.033			-1.781
64801.000			-16.032			-1.781
64901.000			-16.030			-1.781
65000.000			-16.029			-1.781
65100.000			-16.030			-1.781
65200.000			-16.029			-1.781
65300.000			-16.029			-1.781
65401.000			-16.029			-1.781
65501.000			-16.028			-1.781
65601.000			-16.027			-1.781
65701.000			-16.027			-1.781
65800.000			-16.026			-1.781
65900.000			-16.025			-1.781
66001.000			-16.026			-1.781
66100.000			-16.024			-1.780
66200.000			-16.024			-1.780
66302.000			-16.023			-1.780
66401.000			-16.022			-1.780
66500.000			-16.022			-1.780
66601.000			-16.021			-1.780
66700.000			-16.021			-1.780
66800.000			-16.021			-1.780
66901.000			-16.021			-1.780
67001.000			-16.021			-1.780
67101.000			-16.019			-1.780
67202.000			-16.018			-1.780
67300.000			-16.018			-1.780
67400.000			-16.017			-1.780
67501.000			-16.017			-1.780
67600.000			-16.016			-1.780
67700.000			-16.015			-1.779
67801.000			-16.016			-1.780
67901.000			-16.014			-1.779
68001.000			-16.013			-1.779
68101.000			-16.012			-1.779
68200.000			-16.012			-1.779
68300.000			-16.012			-1.779
68400.000			-16.012			-1.779
68500.000			-16.011			-1.779
68601.000			-16.011			-1.779
68701.000			-16.009			-1.779
68801.000			-16.009			-1.779
68901.000			-16.009			-1.779
69000.000			-16.008			-1.779
69100.000			-16.007			-1.779
69201.000			-16.006			-1.778
69300.000			-16.006			-1.778
69400.000			-16.005			-1.778
69502.000			-16.004			-1.778
69601.000			-16.004			-1.778
69700.000			-16.005			-1.778
69801.000			-16.005			-1.778
69900.000			-16.004			-1.778
70000.000			-16.002			-1.778
70101.000			-16.002			-1.778
70200.000			-16.001			-1.778
70301.000			-16.001			-1.778
70401.000			-16.001			-1.778
70500.000			-16.001			-1.778
70600.000			-15.999			-1.778
70701.000			-15.998			-1.778
70800.000			-15.998			-1.778
70900.000			-15.998			-1.778
71001.000			-15.997			-1.777
71101.000			-15.996			-1.777
71201.000			-15.996			-1.777
71301.000			-15.996			-1.777
71400.000			-15.996			-1.777
71500.000			-15.994			-1.777
71600.000			-15.994			-1.777
71700.000			-15.995			-1.777
71801.000			-15.994			-1.777
71901.000			-15.993			-1.777
72001.000			-15.993			-1.777
72101.000			-15.992			-1.777
72200.000			-15.990			-1.777
72300.000			-15.990			-1.777
72401.000			-15.990			-1.777
72500.000			-15.989			-1.777
72600.000			-15.988			-1.776
72701.000			-15.989			-1.777
72801.000			-15.988			-1.776
72901.000			-15.986			-1.776
73001.000			-15.986			-1.776
73100.000			-15.986			-1.776
73200.000			-15.986			-1.776
73301.000			-15.985			-1.776
73400.000			-15.984			-1.776
73500.000			-15.985			-1.776
73601.000			17.025			1.892
73777.000			-15.982			-1.776
73864.000			-15.983			-1.776
73952.000			-15.982			-1.776
74040.000			-15.982			-1.776
74128.000			-15.981			-1.776
74216.000			-15.979			-1.775
74304.000			-15.981			-1.776
74401.000			-15.980			-1.776
74501.000			-15.979			-1.775
74600.000			-15.978			-1.775
74700.000			-15.979			-1.775
74800.000			-15.979			-1.775
74900.000			-15.979			-1.775
75001.000			-15.979			-1.775
75101.000			-15.976			-1.775
75201.000			-15.977			-1.775
75301.000			-15.976			-1.775
75400.000			-15.975			-1.775
75500.000			-15.974			-1.775
75601.000			-15.974			-1.775
75700.000			-15.974			-1.775
75800.000			-15.973			-1.775
75901.000			-15.972			-1.775
76001.000			-15.972			-1.775
76101.000			-15.972			-1.775
76201.000			-15.971			-1.775
76300.000			-15.970			-1.774
76400.000			-15.970			-1.774
76501.000			-15.970			-1.774
76600.000			-15.969			-1.774
76700.000			-15.969			-1.774
76802.000			-15.969			-1.774
76901.000			-15.968			-1.774
77000.000			-15.968			-1.774
77101.000			-15.967			-1.774
77200.000			-15.966			-1.774
77300.000			-15.967			-1.774
77401.000			-15.966			-1.774
77500.000			-15.965			-1.774
77600.000			-15.964			-1.774
77702.000			-15.963			-1.774
77801.000			-15.963			-1.774
77900.000			-15.964			-1.774
78000.000			-15.962			-1.774
78100.000			-15.961			-1.773
78201.000			-15.961			-1.773
78300.000			-15.961			-1.773
78400.000			-15.960			-1.773
78502.000			-15.961			-1.773
78601.000			-15.960			-1.773
78701.000			-15.958			-1.773
78801.000			-15.957			-1.773
78900.000			-15.956			-1.773
79000.000			-15.956			-1.773
79101.000			-15.957			-1.773
79200.000			-15.957			-1.773
79300.000			-15.955			-1.773
79402.000			-15.955			-1.773
79501.000			-15.955			-1.773
79600.000			-15.954			-1.773
79701.000			-15.954			-1.773
79800.000			-15.954			-1.773
79900.000			-15.954			-1.773
80001.000			-15.952			-1.772
80100.000			-15.953			-1.773
80201.000			-15.952			-1.772
80302.000			-15.952			-1.772
80401.000			-15.951			-1.772
80500.000			-15.950			-1.772
80601.000			-15.949			-1.772
80700.000			-15.950			-1.772
80800.000			-15.950			-1.772
80901.000			-15.949			-1.772
81000.000			-15.949			-1.772
81102.000			-15.948			-1.772
81201.000			-15.947			-1.772
81300.000			-15.946			-1.772
81401.000			-15.946			-1.772
81500.000			-15.946			-1.772
81600.000			-15.946			-1.772
81701.000			-15.944			-1.772
81800.000			-15.943			-1.771
81901.000			-15.943			-1.771
82002.000			-15.944			-1.772
82100.000			-15.944			-1.772
82200.000			-15.943			-1.771
82301.000			-15.942			-1.771
82400.000			-15.942			-1.771
82500.000			-15.941			-1.771
82601.000			-15.940			-1.771
82701.000			-15.939			-1.771
82801.000			-15.939			-1.771
82902.000			-15.939			-1.771
83000.000			-15.940			-1.771
83100.000			-15.937			-1.771
83201.000			-15.937			-1.771
83300.000			-15.938			-1.771
83400.000			-15.937			-1.771
83501.000			-15.937			-1.771
83601.000			-15.935			-1.771
83701.000			-15.936			-1.771
83801.000			-15.935			-1.771
83900.000			-15.935			-1.771
84000.000			-15.935			-1.771
84101.000			-15.934			-1.770
84200.000			-15.933			-1.770
84300.000			-15.932			-1.770
84402.000			-15.932			-1.770
84501.000			-15.932			-1.770
84601.000			-15.930			-1.770
84700.000			-15.930			-1.770
84800.000			-15.930			-1.770
84901.000			-15.929			-1.770
85000.000			-15.930			-1.770
85100.000			-15.930			-1.770
85202.000			-15.929			-1.770
85301.000			-15.927			-1.770
85400.000			-15.927			-1.770
85501.000			-15.927			-1.770
85600.000			-15.927			-1.770
85700.000			-15.927			-1.770
85801.000			-15.926			-1.770
85900.000			-15.925			-1.769
86000.000			-15.926			-1.770
86102.000			-15.924			-1.769
86201.000			-15.924			-1.769
86300.000			-15.924			-1.769
86401.000			-15.923			-1.769
86500.000			-15.922			-1.769
86600.000			-15.922			-1.769
86701.000			-15.922			-1.769
86800.000			-15.922			-1.769
86901.000			-15.921			-1.769
87002.000			-15.921			-1.769
87100.000			-15.922			-1.769
87200.000			-15.921			-1.769
87301.000			-15.919			-1.769
87400.000			-15.919			-1.769
87500.000			-15.918			-1.769
87600.000			-15.918			-1.769
87700.000			-15.918			-1.769
87802.000			-15.918			-1.769
87901.000			-15.918			-1.769
88000.000			-15.918			-1.769
88101.000			-15.916			-1.768
88200.000			-15.916			-1.768
88300.000			-15.915			-1.768
88401.000			-15.915			-1.768
88500.000			-15.915			-1.768
88601.000			-15.914			-1.768
88702.000			-15.914			-1.768
88801.000			-15.913			-1.768
88900.000			-15.912			-1.768
89001.000			-15.911			-1.768
89100.000			-15.912			-1.768
89200.000			-15.912			-1.768
89301.000			-15.911			-1.768
89400.000			-15.910			-1.768
89501.000			-15.910			-1.768
89602.000			-15.909			-1.768
89700.000			-15.908			-1.768
89800.000			-15.908			-1.768
89901.000			-15.909			-1.768
90000.000			-15.909			-1.768
90100.000			-15.909			-1.768
90201.000			-15.908			-1.768
90301.000			-15.907			-1.767
90401.000			-15.906			-1.767
90501.000			-15.906			-1.767
90600.000			-15.905			-1.767
90700.000			-15.905			-1.767
90800.000			-15.904			-1.767
90900.000			-15.904			-1.767
91001.000			-15.903			-1.767
91101.000			-15.903			-1.767
91201.000			-15.902			-1.767
91302.000			-15.902			-1.767
91400.000			-15.903			-1.767
91500.000			-15.902			-1.767
91601.000			-15.901			-1.767
91700.000			-15.901			-1.767
91800.000			-15.900			-1.767
91901.000			-15.900			-1.767
92001.000			-15.899			-1.767
92101.000			-15.899			-1.767
92201.000			-15.899			-1.767
92300.000			-15.898			-1.766
92400.000			-15.897			-1.766
92501.000			-15.897			-1.766
92600.000			-15.897			-1.766
92700.000			-15.897			-1.766
92801.000			-15.896			-1.766
92901.000			-15.895			-1.766
93001.000			-15.895			-1.766
93101.000			-15.894			-1.766
93200.000			-15.895			-1.766
93300.000			-15.896			-1.766
93401.000			-15.894			-1.766
93500.000			-15.893			-1.766
93600.000			-15.893			-1.766
93702.000			-15.893			-1.766
93801.000			-15.892			-1.766
93900.000			-15.891			-1.766
94000.000			-15.891			-1.766
94100.000			-15.891			-1.766
94201.000			-15.890			-1.766
94300.000			-15.889			-1.765
94400.000			-15.888			-1.765
94501.000			-15.888			-1.765
94601.000			-15.889			-1.765
94701.000			-15.887			-1.765
94801.000			-15.887			-1.765
94900.000			-15.888			-1.765
95000.000			-15.887			-1.765
95101.000			-15.886			-1.765
95200.000			-15.885			-1.765
95300.000			-15.885			-1.765
95401.000			-15.885			-1.765
95501.000			-15.884			-1.765
95601.000			-15.883			-1.765
95701.000			-15.883			-1.765
95800.000			-15.882			-1.765
95900.000			-15.881			-1.765
96001.000			-15.881			-1.765
96100.000			-15.881			-1.765
96200.000			-15.881			-1.765
96302.000			-15.881			-1.765
96401.000			-15.880			-1.764
96500.000			-15.880			-1.764
96601.000			-15.879			-1.764
96700.000			-15.878			-1.764
96800.000			-15.878			-1.764
96901.000			-15.877			-1.764
97000.000			-15.878			-1.764
97102.000			-15.877			-1.764
97201.000			-15.877			-1.764
97301.000			-15.877			-1.764
97401.000			-15.876			-1.764
97500.000			-15.876			-1.764
97600.000			-15.875			-1.764
97701.000			-15.875			-1.764
97800.000			-15.876			-1.764
97900.000			-15.875			-1.764
98002.000			-15.874			-1.764
98101.000			-15.874			-1.764
98200.000			-15.874			-1.764
98301.000			-15.873			-1.764
98400.000			-15.872			-1.764
98500.000			-15.871			-1.763
98601.000			-15.871			-1.763
98700.000			-15.871			-1.763
98800.000			-15.872			-1.764
98902.000			-15.871			-1.763
99001.000			-15.870			-1.763
99100.000			-15.870			-1.763
99201.000			-15.869			-1.763
99300.000			-15.869			-1.763
99400.000			-15.868			-1.763
99501.000			-15.868			-1.763
99600.000			-15.869			-1.763
99700.000			-15.868			-1.763
99802.000			-15.868			-1.763
99901.000			-15.867			-1.763
100000.000			-15.867			-1.763
100101.000			-15.865			-1.763
100200.000			-15.866			-1.763
100300.000			-15.867			-1.763
100400.000			-15.867			-1.763
100500.000			-15.865			-1.763
100602.000			-15.865			-1.763
100701.000			-15.864			-1.763
100801.000			-15.864			-1.763
100901.000			-15.864			-1.763
101000.000			-15.863			-1.763
101100.000			-15.863			-1.763
101201.000			-15.863			-1.763
101300.000			-15.863			-1.763
101400.000			-15.863			-1.763
101502.000			-15.862			-1.762
101601.000			-15.861			-1.762
101700.000			-15.861			-1.762
101801.000			-15.860			-1.762
101900.000			-15.860			-1.762
102000.000			-15.860			-1.762
102101.000			-15.859			-1.762
102200.000			-15.858			-1.762
102301.000			-15.859			-1.762
102402.000			-15.859			-1.762
102500.000			-15.858			-1.762
102600.000			-15.859			-1.762
102701.000			-15.857			-1.762
102800.000			-15.857			-1.762
102900.000			-15.857			-1.762
103001.000			-15.856			-1.762
103100.000			-15.856			-1.762
103201.000			-15.856			-1.762
103302.000			-15.855			-1.762
103400.000			-15.855			-1.762
103500.000			-15.854			-1.762
103600.000			-15.854			-1.762
103700.000			-15.854			-1.762
103801.000			-15.854			-1.762
103900.000			-15.854			-1.762
104001.000			-15.853			-1.761
104102.000			-15.852			-1.761
104200.000			-15.851			-1.761
104300.000			-15.851			-1.761
104401.000			-15.851			-1.761
104500.000			-15.852			-1.761
104600.000			-15.851			-1.761
104701.000			-15.850			-1.761
104800.000			-15.849			-1.761
104901.000			-15.848			-1.761
105002.000			-15.848			-1.761
105100.000			-15.848			-1.761
105200.000			-15.848			-1.761
105301.000			-15.848			-1.761
105400.000			-15.847			-1.761
105500.000			-15.847			-1.761
105601.000			-15.846			-1.761
105701.000			-15.846			-1.761
105801.000			-15.846			-1.761
105902.000			-15.846			-1.761
106000.000			-15.845			-1.761
106100.000			-15.845			-1.761
106201.000			-15.844			-1.760
106300.000			-15.844			-1.760
106400.000			-15.843			-1.760
106501.000			-15.843			-1.760
106601.000			-15.843			-1.760
106702.000			-15.842			-1.760
106800.000			-15.841			-1.760
106900.000			-15.842			-1.760
107001.000			-15.842			-1.760
107100.000			-15.841			-1.760
107200.000			-15.840			-1.760
107301.000			-15.840			-1.760
107401.000			-15.840			-1.760
107501.000			-15.840			-1.760
107602.000			-15.841			-1.760
107700.000			-15.840			-1.760
107800.000			-15.839			-1.760
107901.000			-15.839			-1.760
108000.000			-15.838			-1.760
108100.000			-15.838			-1.760
108201.000			-15.838			-1.760
108301.000			-15.837			-1.760
108401.000			-15.836			-1.760
108501.000			-15.836			-1.760
108600.000			-15.835			-1.759
108700.000			-15.836			-1.760
108801.000			-15.835			-1.759
108900.000			-15.836			-1.760
109000.000			-15.834			-1.759
109101.000			-15.833			-1.759
109201.000			-15.834			-1.759
109301.000			-15.834			-1.759
109401.000			-15.833			-1.759
109500.000			-15.832			-1.759
109600.000			-15.833			-1.759
109701.000			-15.832			-1.759
109800.000			-15.831			-1.759
109900.000			-15.831			-1.759
110002.000			-15.831			-1.759
110101.000			-15.830			-1.759
110201.000			-15.830			-1.759
110300.000			-15.830			-1.759
110400.000			-15.830			-1.759
110501.000			-15.829			-1.759
110600.000			-15.829			-1.759
110700.000			-15.829			-1.759
110801.000			-15.828			-1.759
110901.000			-15.827			-1.759
111001.000			-15.828			-1.759
111101.000			-15.827			-1.759
111200.000			-15.827			-1.759
111300.000			-15.826			-1.758
111401.000			-15.826			-1.758
111500.000			-15.825			-1.758
111600.000			-15.826			-1.758
111702.000			-15.825			-1.758
111801.000			-15.826			-1.758
111900.000			-15.825			-1.758
112001.000			-15.825			-1.758
112100.000			-15.825			-1.758
112200.000			-15.823			-1.758
112301.000			-15.823			-1.758
112400.000			-15.823			-1.758
112501.000			-15.824			-1.758
112602.000			-15.823			-1.758
112700.000			-15.823			-1.758
112800.000			-15.823			-1.758
112901.000			-15.821			-1.758
113000.000			-15.821			-1.758
113100.000			-15.820			-1.758
113200.000			-15.819			-1.758
113300.000			-15.819			-1.758
113402.000			-15.819			-1.758
113501.000			-15.819			-1.758
113600.000			-15.819			-1.758
113701.000			-15.818			-1.758
113800.000			-15.817			-1.757
113900.000			-15.817			-1.757
114001.000			-15.816			-1.757
114100.000			-15.817			-1.757
114201.000			-15.817			-1.757
114302.000			-15.816			-1.757
114400.000			-15.816			-1.757
114500.000			-15.815			-1.757
114601.000			-15.816			-1.757
114700.000			-15.815			-1.757
114800.000			-15.815			-1.757
114901.000			-15.814			-1.757
115000.000			-15.814			-1.757
115101.000			-15.813			-1.757
115202.000			-15.814			-1.757
115300.000			-15.814			-1.757
115400.000			-15.813			-1.757
115501.000			-15.812			-1.757
115600.000			-15.812			-1.757
115700.000			-15.812			-1.757
115801.000			-15.812			-1.757
115901.000			-15.811			-1.757
116001.000			-15.811			-1.757
116101.000			-15.810			-1.757
116200.000			-15.810			-1.757
116300.000			-15.810			-1.757
116400.000			-15.809			-1.757
116500.000			-15.809			-1.757
116601.000			-15.809			-1.757
116701.000			-15.808			-1.756
116801.000			-15.808			-1.756
116902.000			-15.808			-1.756
117000.000			-15.807			-1.756
117100.000			-15.806			-1.756
117201.000			-15.807			-1.756
117300.000			-15.806			-1.756
117400.000			-15.806			-1.756
117501.000			-15.805			-1.756
117601.000			-15.805			-1.756
117701.000			-15.805			-1.756
117801.000			-15.805			-1.756
117900.000			-15.805			-1.756
118000.000			-15.804			-1.756
118101.000			-15.804			-1.756
118200.000			-15.803			-1.756
118300.000			-15.802			-1.756
118402.000			-15.802			-1.756
118501.000			-15.802			-1.756
118601.000			-15.802			-1.756
118701.000			-15.801			-1.756
118800.000			-15.801			-1.756
118900.000			-15.800			-1.756
119001.000			-15.801			-1.756
119100.000			-15.802			-1.756
119200.000			-15.802			-1.756
119302.000			-15.800			-1.756
119401.000			-15.800			-1.756
119500.000			-15.799			-1.755
119600.000			-15.799			-1.755
119700.000			-15.800			-1.756
119801.000			-15.799			-1.755
119900.000			-15.798			-1.755
120000.000			-15.798			-1.755
120101.000			-15.798			-1.755
120201.000			-15.798			-1.755
120301.000			-15.798			-1.755
120401.000			-15.797			-1.755
120500.000			-15.797			-1.755
120600.000			-15.797			-1.755
120701.000			-15.796			-1.755
120800.000			-15.796			-1.755
120900.000			-15.796			-1.755
121001.000			-15.795			-1.755
121101.000			-15.794			-1.755
121201.000			-15.794			-1.755
121301.000			-15.794			-1.755
121400.000			-15.793			-1.755
121500.000			-15.793			-1.755
121601.000			-15.793			-1.755
121700.000			-15.793			-1.755
121800.000			-15.792			-1.755
121902.000			-15.792			-1.755
122001.000			-15.792			-1.755
122100.000			-15.791			-1.755
122201.000			-15.790			-1.754
122300.000			-15.791			-1.755
122400.000			-15.790			-1.754
122501.000			-15.791			-1.755
122600.000			-15.790			-1.754
122700.000			-15.789			-1.754
122802.000			-15.789			-1.754
122901.000			-15.788			-1.754
123001.000			-15.788			-1.754
123100.000			-15.788			-1.754
123200.000			-15.788			-1.754
123301.000			-15.788			-1.754
123400.000			-15.787			-1.754
123500.000			-15.787			-1.754
123602.000			-15.786			-1.754
123701.000			-15.787			-1.754
123801.000			-15.785			-1.754
123901.000			-15.785			-1.754
124000.000			-15.786			-1.754
124100.000			-15.786			-1.754
124201.000			-15.785			-1.754
124300.000			-15.783			-1.754
124400.000			-15.784			-1.754
124502.000			-15.784			-1.754
124601.000			-15.783			-1.754
124700.000			-15.782			-1.754
124801.000			-15.782			-1.754
124900.000			-15.782			-1.754
125000.000			-15.782			-1.754
125101.000			-15.781			-1.753
125200.000			-15.781			-1.753
125300.000			-15.781			-1.753
125402.000			-15.780			-1.753
125501.000			-15.780			-1.753
125600.000			-15.780			-1.753
125701.000			-15.781			-1.753
125800.000			-15.779			-1.753
125900.000			-15.779			-1.753
126000.000			-15.779			-1.753
126100.000			-15.778			-1.753
126202.000			-15.779			-1.753
126301.000			-15.778			-1.753
126401.000			-15.778			-1.753
126501.000			-15.779			-1.753
126600.000			-15.779			-1.753
126700.000			-15.777			-1.753
126801.000			-15.777			-1.753
126900.000			-15.776			-1.753
127000.000			-15.777			-1.753
127102.000			-15.776			-1.753
127201.000			-15.775			-1.753
127301.000			-15.776			-1.753
127401.000			-15.776			-1.753
127500.000			-15.775			-1.753
127600.000			-15.774			-1.753
127701.000			-15.773			-1.753
127800.000			-15.773			-1.753
127900.000			-15.773			-1.753
128002.000			-15.773			-1.753
128101.000			-15.773			-1.753
128200.000			-15.773			-1.753
128301.000			-15.773			-1.753
128400.000			-15.772			-1.752
128500.000			-15.771			-1.752
128601.000			-15.772			-1.752
128700.000			-15.771			-1.752
128800.000			-15.771			-1.752
128902.000			-15.770			-1.752
129001.000			-15.769			-1.752
129100.000			-15.769			-1.752
129200.000			-15.769			-1.752
129300.000			-15.769			-1.752
129401.000			-15.769			-1.752
129500.000			-15.768			-1.752
129600.000			-15.767			-1.752
129701.000			-15.767			-1.752
129801.000			-15.767			-1.752
129901.000			-15.767			-1.752
130001.000			-15.767			-1.752
130100.000			-15.765			-1.752
130200.000			-15.765			-1.752
130301.000			-15.765			-1.752
130400.000			-15.765			-1.752
130500.000			-15.765			-1.752
130601.000			-15.765			-1.752
130701.000			-15.765			-1.752
130801.000			-15.765			-1.752
130901.000			-15.764			-1.752
131000.000			-15.764			-1.752
131100.000			-15.763			-1.751
131201.000			-15.763			-1.751
131300.000			-15.763			-1.751
131400.000			-15.763			-1.751
131502.000			-15.763			-1.751
131601.000			-15.762			-1.751
131701.000			-15.762			-1.751
131801.000			-15.762			-1.751
131900.000			-15.762			-1.751
132000.000			-15.761			-1.751
132101.000			-15.760			-1.751
132200.000			-15.760			-1.751
132300.000			-15.759			-1.751
132400.000			-15.760			-1.751
132501.000			-15.760			-1.751
132602.000			-15.760			-1.751
132700.000			-15.759			-1.751
132800.000			-15.758			-1.751
132901.000			-15.757			-1.751
133000.000			-15.757			-1.751
133100.000			-15.758			-1.751
133201.000			-15.757			-1.751
133300.000			-15.758			-1.751
133401.000			-15.758			-1.751
133502.000			-15.757			-1.751
133601.000			-15.757			-1.751
133700.000			-15.756			-1.751
133801.000			-15.756			-1.751
133900.000			-15.756			-1.751
134000.000			-15.755			-1.751
134101.000			-15.755			-1.751
134200.000			-15.755			-1.751
134300.000			-15.755			-1.751
134402.000			-15.754			-1.750
134501.000			-15.754			-1.750
134600.000			-15.753			-1.750
134701.000			-15.753			-1.750
134800.000			-15.753			-1.750
134900.000			-15.752			-1.750
135001.000			-15.753			-1.750
135100.000			-15.752			-1.750
135200.000			-15.751			-1.750
135302.000			-15.751			-1.750
135401.000			-15.752			-1.750
135502.000			-15.751			-1.750
135600.000			-15.751			-1.750
135700.000			-15.750			-1.750
135801.000			-15.750			-1.750
135900.000			-15.750			-1.750
136000.000			-15.750			-1.750
136101.000			-15.750			-1.750
136200.000			-15.748			-1.750
136301.000			-15.747			-1.750
136402.000			-15.749			-1.750
136500.000			-15.748			-1.750
136600.000			-15.748			-1.750
136701.000			-15.748			-1.750
136800.000			-15.748			-1.750
136900.000			-15.747			-1.750
137001.000			-15.748			-1.750
137100.000			-15.747			-1.750
137201.000			-15.746			-1.750
137302.000			-15.746			-1.750
137401.000			-15.746			-1.750
137500.000			-15.745			-1.749
137601.000			-15.745			-1.749
137700.000			-15.745			-1.749
137800.000			-15.745			-1.749
137901.000			-15.744			-1.749
138000.000			-15.744			-1.749
138100.000			-15.744			-1.749
138202.000			-15.743			-1.749
138301.000			-15.743			-1.749
138401.000			-15.743			-1.749
138501.000			-15.742			-1.749
138600.000			-15.742			-1.749
138700.000			-15.742			-1.749
138800.000			-15.743			-1.749
138900.000			-15.742			-1.749
139001.000			-15.741			-1.749
139100.000			-15.741			-1.749
139201.000			-15.741			-1.749
139302.000			-15.741			-1.749
139401.000			-15.740			-1.749
139500.000			-15.739			-1.749
139601.000			-15.739			-1.749
139700.000			-15.739			-1.749
139800.000			-15.739			-1.749
139901.000			-15.738			-1.749
140000.000			-15.738			-1.749
140100.000			-15.738			-1.749
140202.000			-15.738			-1.749
140301.000			-15.738			-1.749
140400.000			-15.738			-1.749
140501.000			-15.738			-1.749
140600.000			-15.737			-1.749
140700.000			-15.737			-1.749
140801.000			-15.736			-1.748
140900.000			-15.736			-1.748
141000.000			-15.736			-1.748
141102.000			-15.735			-1.748
141201.000			-15.735			-1.748
141300.000			-15.735			-1.748
141401.000			-15.734			-1.748
141500.000			-15.735			-1.748
141600.000			-15.733			-1.748
141701.000			-15.733			-1.748
141800.000			-15.734			-1.748
141900.000			-15.733			-1.748
142002.000			-15.734			-1.748
142101.000			-15.733			-1.748
142202.000			-15.732			-1.748
142300.000			-15.732			-1.748
142400.000			-15.732			-1.748
142501.000			-15.731			-1.748
142600.000			-15.730			-1.748
142700.000			-15.730			-1.748
142801.000			-15.731			-1.748
142901.000			-15.730			-1.748
143001.000			-15.730			-1.748
143102.000			-15.730			-1.748
143200.000			-15.729			-1.748
143300.000			-15.729			-1.748
143401.000			-15.728			-1.748
143500.000			-15.730			-1.748
143600.000			-15.728			-1.748
143701.000			-15.728			-1.748
143800.000			-15.727			-1.747
143901.000			-15.727			-1.747
144002.000			-15.728			-1.748
144100.000			-15.727			-1.747
144200.000			-15.726			-1.747
144301.000			-15.726			-1.747
144400.000			-15.726			-1.747
144500.000			-15.725			-1.747
144601.000			-15.725			-1.747
144700.000			-15.726			-1.747
144800.000			-15.725			-1.747
144902.000			-15.724			-1.747
145001.000			-15.724			-1.747
145100.000			-15.723			-1.747
145200.000			-15.722			-1.747
145300.000			-15.723			-1.747
145401.000			-15.723			-1.747
145500.000			-15.723			-1.747
145600.000			-15.723			-1.747
145701.000			-15.721			-1.747
145801.000			-15.722			-1.747
145901.000			-15.721			-1.747
146001.000			-15.721			-1.747
146100.000			-15.722			-1.747
146200.000			-15.721			-1.747
146301.000			-15.722			-1.747
146400.000			-15.721			-1.747
146500.000			-15.721			-1.747
146601.000			-15.721			-1.747
146701.000			-15.721			-1.747
146801.000			-15.721			-1.747
146901.000			-15.720			-1.747
147000.000			-15.720			-1.747
147100.000			-15.719			-1.747
147201.000			-15.718			-1.746
147300.000			-15.718			-1.746
147400.000			-15.718			-1.746
147501.000			-15.717			-1.746
147601.000			-15.717			-1.746
147701.000			-15.718			-1.746
147802.000			-15.719			-1.747
147900.000			-15.717			-1.746
148000.000			-15.716			-1.746
148101.000			-15.716			-1.746
148200.000			-15.716			-1.746
148300.000			-15.715			-1.746
148400.000			-15.715			-1.746
148500.000			-15.715			-1.746
148602.000			-15.714			-1.746
148701.000			-15.714			-1.746
148801.000			-15.715			-1.746
148901.000			-15.715			-1.746
149000.000			-15.715			-1.746
149100.000			-15.713			-1.746
149201.000			-15.714			-1.746
149300.000			-15.713			-1.746
149400.000			-15.713			-1.746
149501.000			-15.713			-1.746
149601.000			-15.714			-1.746
149701.000			-15.713			-1.746
149801.000			-15.711			-1.746
149900.000			-15.711			-1.746
150000.000			-15.710			-1.746
150101.000			-15.711			-1.746
150200.000			-15.712			-1.746
150300.000			-15.713			-1.746
150401.000			-15.711			-1.746
150501.000			-15.710			-1.746
150601.000			-15.710			-1.746
150701.000			-15.710			-1.746
150800.000			-15.710			-1.746
150900.000			-15.709			-1.745
151001.000			-15.709			-1.745
151100.000			-15.709			-1.745
151200.000			-15.708			-1.745
151301.000			-15.708			-1.745
151401.000			-15.707			-1.745
151502.000			-15.706			-1.745
151600.000			-15.707			-1.745
151700.000			-15.708			-1.745
151801.000			-15.708			-1.745
151900.000			-15.707			-1.745
152000.000			-15.705			-1.745
152101.000			-15.705			-1.745
152200.000			-15.706			-1.745
152301.000			-15.706			-1.745
152402.000			-15.706			-1.745
152501.000			-15.705			-1.745
152600.000			-15.704			-1.745
152701.000			-15.704			-1.745
152800.000			-15.705			-1.745
152900.000			-15.704			-1.745
153001.000			-15.704			-1.745
153100.000			-15.703			-1.745
153201.000			-15.703			-1.745
153302.000			-15.702			-1.745
153401.000			-15.703			-1.745
153500.000			-15.703			-1.745
153601.000			-15.703			-1.745
153700.000			-15.702			-1.745
153800.000			-15.702			-1.745
153901.000			-15.701			-1.745
154000.000			-15.701			-1.745
154100.000			-15.700			-1.744
154202.000			-15.700			-1.744
154301.000			-15.699			-1.744
154400.000			-15.699			-1.744
154501.000			-15.700			-1.744
154600.000			-15.699			-1.744
154700.000			-15.700			-1.744
154800.000			-15.699			-1.744
154900.000			-15.698			-1.744
155001.000			-15.699			-1.744
155101.000			-15.699			-1.744
155201.000			-15.698			-1.744
155302.000			-15.698			-1.744
155400.000			-15.697			-1.744
155500.000			-15.696			-1.744
155601.000			-15.697			-1.744
155700.000			-15.697			-1.744
155800.000			-15.696			-1.744
155901.000			-15.696			-1.744
156000.000			-15.697			-1.744
156101.000			-15.696			-1.744
156202.000			-15.695			-1.744
156301.000			-15.695			-1.744
156400.000			-15.695			-1.744
156501.000			-15.695			-1.744
156600.000			-15.695			-1.744
156700.000			-15.695			-1.744
156801.000			-15.693			-1.744
156900.000			-15.694			-1.744
157000.000			-15.693			-1.744
157102.000			-15.692			-1.744
157201.000			-15.693			-1.744
157301.000			-15.693			-1.744
157401.000			-15.693			-1.744
157500.000			-15.692			-1.744
157600.000			-15.692			-1.744
157701.000			-15.693			-1.744
157800.000			-15.692			-1.744
157900.000			-15.691			-1.743
158000.000			-15.691			-1.743
158101.000			-15.691			-1.743
158202.000			-15.692			-1.744
158301.000			-15.691			-1.743
158400.000			-15.690			-1.743
158501.000			-15.690			-1.743
158600.000			-15.689			-1.743
158700.000			-15.689			-1.743
158801.000			-15.690			-1.743
158900.000			-15.690			-1.743
159000.000			-15.689			-1.743
159102.000			-15.688			-1.743
159201.000			-15.688			-1.743
159300.000			-15.689			-1.743
159401.000			-15.689			-1.743
159500.000			-15.687			-1.743
159600.000			-15.687			-1.743
159701.000			-15.687			-1.743
159800.000			-15.686			-1.743
159900.000			-15.685			-1.743
160001.000			-15.685			-1.743
160101.000			-15.685			-1.743
160201.000			-15.686			-1.743
160301.000			-15.685			-1.743
160400.000			-15.685			-1.743
160500.000			-15.684			-1.743
160601.000			-15.685			-1.743
160700.000			-15.685			-1.743
160800.000			-15.684			-1.743
160901.000			-15.683			-1.743
161001.000			-15.684			-1.743
161102.000			-15.683			-1.743
161201.000			-15.684			-1.743
161300.000			-15.684			-1.743
161401.000			-15.685			-1.743
161500.000			-15.684			-1.743
161600.000			-15.684			-1.743
161701.000			-15.682			-1.742
161800.000			-15.681			-1.742
161900.000			-15.683			-1.743
162002.000			-15.682			-1.742
162101.000			-15.681			-1.742
162200.000			-15.681			-1.742
162301.000			-15.680			-1.742
162400.000			-15.680			-1.742
162500.000			-15.680			-1.742
162601.000			-15.680			-1.742
162700.000			-15.680			-1.742
162800.000			-15.680			-1.742
162902.000			-15.679			-1.742
163001.000			-15.678			-1.742
163101.000			-15.678			-1.742
163201.000			-15.678			-1.742
163300.000			-15.678			-1.742
163400.000			-15.677			-1.742
163501.000			-15.677			-1.742
163600.000			-15.679			-1.742
163700.000			-15.679			-1.742
163801.000			-15.677			-1.742
163901.000			-15.676			-1.742
164001.000			-15.676			-1.742
164102.000			-15.677			-1.742
164200.000			-15.676			-1.742
164300.000			-15.675			-1.742
164400.000			-15.676			-1.742
164500.000			-15.676			-1.742
164601.000			-15.675			-1.742
164700.000			-15.673			-1.741
164800.000			-15.673			-1.741
164902.000			-15.674			-1.742
165001.000			-15.674			-1.742
165101.000			-15.673			-1.741
165201.000			-15.673			-1.741
165300.000			-15.672			-1.741
165400.000			-15.673			-1.741
165501.000			-15.673			-1.741
165600.000			-15.673			-1.741
165700.000			-15.672			-1.741
165802.000			-15.673			-1.741
165901.000			-15.672			-1.741
166001.000			-15.671			-1.741
166101.000			-15.671			-1.741
166200.000			-15.671			-1.741
166300.000			-15.671			-1.741
166401.000			-15.671			-1.741
166500.000			-15.670			-1.741
166600.000			-15.670			-1.741
166701.000			-15.671			-1.741
166801.000			-15.670			-1.741
166901.000			-15.670			-1.741
167002.000			-15.670			-1.741
167100.000			-15.669			-1.741
167200.000			-15.669			-1.741
167301.000			-15.669			-1.741
167400.000			-15.668			-1.741
167500.000			-15.669			-1.741
167600.000			-15.668			-1.741
167700.000			-15.668			-1.741
167802.000			-15.667			-1.741
167901.000			-15.667			-1.741
168001.000			-15.668			-1.741
168101.000			-15.667			-1.741
168200.000			-15.667			-1.741
168300.000			-15.667			-1.741
168401.000			-15.666			-1.741
168500.000			-15.666			-1.741
168600.000			-15.666			-1.741
168701.000			-15.665			-1.741
168801.000			-15.666			-1.741
168901.000			-15.665			-1.741
169002.000			-15.665			-1.741
169100.000			-15.664			-1.740
169200.000			-15.664			-1.740
169301.000			-15.665			-1.741
169400.000			-15.664			-1.740
169500.000			-15.664			-1.740
169601.000			-15.665			-1.741
169700.000			-15.663			-1.740
169801.000			-15.663			-1.740
169902.000			-15.663			-1.740
170001.000			-15.663			-1.740
170100.000			-15.662			-1.740
170201.000			-15.662			-1.740
170300.000			-15.660			-1.740
170400.000			-15.661			-1.740
170501.000			-15.661			-1.740
170600.000			-15.661			-1.740
170700.000			-15.661			-1.740
170802.000			-15.661			-1.740
170901.000			-15.661			-1.740
171001.000			-15.660			-1.740
171100.000			-15.659			-1.740
171200.000			-15.660			-1.740
171301.000			-15.659			-1.740
171400.000			-15.658			-1.740
171500.000			-15.659			-1.740
171601.000			-15.658			-1.740
171701.000			-15.659			-1.740
171801.000			-15.659			-1.740
171902.000			-15.658			-1.740
172000.000			-15.658			-1.740
172100.000			-15.658			-1.740
172201.000			-15.657			-1.740
172300.000			-15.657			-1.740
172400.000			-15.658			-1.740
172501.000			-15.658			-1.740
172600.000			-15.656			-1.740
172701.000			-15.655			-1.739
172802.000			-15.655			-1.739
172901.000			-15.655			-1.739
173000.000			-15.654			-1.739
173101.000			-15.655			-1.739
173200.000			-15.655			-1.739
173300.000			-15.654			-1.739
173401.000			-15.654			-1.739
173500.000			-15.654			-1.739
173600.000			-15.654			-1.739
173702.000			-15.653			-1.739
173801.000			-15.653			-1.739
173900.000			-15.654			-1.739
174000.000			-15.654			-1.739
174100.000			-15.653			-1.739
174201.000			-15.654			-1.739
174300.000			-15.653			-1.739
174400.000			-15.652			-1.739
174501.000			-15.652			-1.739
174601.000			-15.651			-1.739
174701.000			-15.651			-1.739
174802.000			-15.651			-1.739
174900.000			-15.652			-1.739
175000.000			-15.651			-1.739
175101.000			-15.651			-1.739
175200.000			-15.651			-1.739
175300.000			-15.650			-1.739
175401.000			-15.650			-1.739
175500.000			-15.649			-1.739
175601.000			-15.649			-1.739
175702.000			-15.649			-1.739
175800.000			-15.649			-1.739
175900.000			-15.649			-1.739
176001.000			-15.649			-1.739
176100.000			-15.649			-1.739
176200.000			-15.649			-1.739
176301.000			-15.649			-1.739
176400.000			-15.647			-1.739
176500.000			-15.647			-1.739
176602.000			-15.647			-1.739
176701.000			-15.647			-1.739
176800.000			-15.647			-1.739
176901.000			-15.646			-1.738
177000.000			-15.645			-1.738
177100.000			-15.645			-1.738
177200.000			-15.645			-1.738
177300.000			-15.645			-1.738
177401.000			-15.646			-1.738
177501.000			-15.645			-1.738
177601.000			-15.645			-1.738
177702.000			-15.644			-1.738
177800.000			-15.643			-1.738
177900.000			-15.644			-1.738
178001.000			-15.645			-1.738
178100.000			-15.645			-1.738
178200.000			-15.644			-1.738
178301.000			-15.644			-1.738
178400.000			-15.643			-1.738
178501.000			-15.643			-1.738
178602.000			-15.643			-1.738
178701.000			-15.643			-1.738
178800.000			-15.642			-1.738
178901.000			-15.642			-1.738
179000.000			-15.642			-1.738
179100.000			-15.643			-1.738
179201.000			-15.643			-1.738
179300.000			-15.641			-1.738
179400.000			-15.642			-1.738
179502.000			-15.642			-1.738
179601.000			-15.641			-1.738
179700.000			-15.640			-1.738
179801.000			-15.640			-1.738
179900.000			-15.640			-1.738
180000.000			-15.640			-1.738
180101.000			-15.639			-1.738
180200.000			-15.639			-1.738
180300.000			-15.639			-1.738
180402.000			-15.638			-1.738
180501.000			-15.638			-1.738
180602.000			-15.638			-1.738
180700.000			-15.638			-1.738
180800.000			-15.638			-1.738
180901.000			-15.638			-1.738
181000.000			-15.637			-1.737
181100.000			-15.637			-1.737
181201.000			-15.637			-1.737
181300.000			-15.636			-1.737
181401.000			-15.638			-1.738
181502.000			-15.638			-1.738
181600.000			-15.637			-1.737
181700.000			-15.636			-1.737
181801.000			-15.636			-1.737
181900.000			-15.635			-1.737
182000.000			-15.636			-1.737
182101.000			-15.635			-1.737
182200.000			-15.635			-1.737
182301.000			-15.635			-1.737
182402.000			-15.634			-1.737
182501.000			-15.634			-1.737
182600.000			-15.634			-1.737
182701.000			-15.633			-1.737
182800.000			-15.632			-1.737
182900.000			-15.633			-1.737
183001.000			-15.634			-1.737
183100.000			-15.633			-1.737
183200.000			-15.632			-1.737
183302.000			-15.633			-1.737
183401.000			-15.633			-1.737
183500.000			-15.631			-1.737
183600.000			-15.631			-1.737
183700.000			-15.632			-1.737
183801.000			-15.632			-1.737
183900.000			-15.631			-1.737
184000.000			-15.630			-1.737
184101.000			-15.631			-1.737
184201.000			-15.631			-1.737
184301.000			-15.630			-1.737
184401.000			-15.630			-1.737
184500.000			-15.630			-1.737
184600.000			-15.629			-1.737
184701.000			-15.629			-1.737
184800.000			-15.629			-1.737
184900.000			-15.630			-1.737
185001.000			-15.629			-1.737
185101.000			-15.629			-1.737
185201.000			-15.628			-1.736
185302.000			-15.628			-1.736
185400.000			-15.627			-1.736
185500.000			-15.628			-1.736
185601.000			-15.628			-1.736
185700.000			-15.627			-1.736
185800.000			-15.627			-1.736
185901.000			-15.627			-1.736
186000.000			-15.627			-1.736
186101.000			-15.626			-1.736
186202.000			-15.626			-1.736
186301.000			-15.626			-1.736
186400.000			-15.626			-1.736
186501.000			-15.626			-1.736
186600.000			-15.626			-1.736
186700.000			-15.625			-1.736
186800.000			-15.626			-1.736
186900.000			-15.625			-1.736
187001.000			-15.625			-1.736
187101.000			-15.624			-1.736
187201.000			-15.624			-1.736
187302.000			-15.625			-1.736
187400.000			-15.624			-1.736
187500.000			-15.623			-1.736
187601.000			-15.623			-1.736
187700.000			-15.623			-1.736
187800.000			-15.624			-1.736
187901.000			-15.623			-1.736
188000.000			-15.622			-1.736
188101.000			-15.622			-1.736
188202.000			-15.623			-1.736
188300.000			-15.622			-1.736
188400.000			-15.621			-1.736
188501.000			-15.622			-1.736
188600.000			-15.621			-1.736
188700.000			-15.621			-1.736
188801.000			-15.622			-1.736
188900.000			-15.621			-1.736
189001.000			-15.621			-1.736
189102.000			-15.620			-1.736
189201.000			-15.619			-1.735
189300.000			-15.620			-1.736
189401.000			-15.619			-1.735
189500.000			-15.620			-1.736
189600.000			-15.620			-1.736
189701.000			-15.620			-1.736
189800.000			-15.620			-1.736
189900.000			-15.618			-1.735
190002.000			-15.618			-1.735
190101.000			-15.617			-1.735
190202.000			-15.618			-1.735
190300.000			-15.618			-1.735
190400.000			-15.618			-1.735
190501.000			-15.618			-1.735
190600.000			-15.617			-1.735
190700.000			-15.617			-1.735
190801.000			-15.617			-1.735
190900.000			-15.616			-1.735
191001.000			-15.617			-1.735
191102.000			-15.616			-1.735
191201.000			-15.615			-1.735
191300.000			-15.615			-1.735
191401.000			-15.615			-1.735
191500.000			-15.616			-1.735
191600.000			-15.616			-1.735
191701.000			-15.616			-1.735
191800.000			-15.617			-1.735
191901.000			-15.615			-1.735
192002.000			-15.614			-1.735
192101.000			-15.614			-1.735
192200.000			-15.614			-1.735
192301.000			-15.613			-1.735
192400.000			-15.613			-1.735
192500.000			-15.613			-1.735
192601.000			-15.613			-1.735
192700.000			-15.613			-1.735
192800.000			-15.613			-1.735
192902.000			-15.612			-1.735
193001.000			-15.612			-1.735
193100.000			-15.612			-1.735
193200.000			-15.611			-1.735
193300.000			-15.612			-1.735
193401.000			-15.612			-1.735
193500.000			-15.611			-1.735
193600.000			-15.611			-1.735
193701.000			-15.610			-1.734
193801.000			-15.610			-1.734
193901.000			-15.610			-1.734
194001.000			-15.610			-1.734
194100.000			-15.610			-1.734
194200.000			-15.610			-1.734
194301.000			-15.610			-1.734
194400.000			-15.609			-1.734
194500.000			-15.610			-1.734
194601.000			-15.610			-1.734
194701.000			-15.610			-1.734
194801.000			-15.609			-1.734
194902.000			-15.609			-1.734
195000.000			-15.608			-1.734
195100.000			-15.607			-1.734
195201.000			-15.608			-1.734
195300.000			-15.608			-1.734
195400.000			-15.607			-1.734
195501.000			-15.607			-1.734
195600.000			-15.608			-1.734
195701.000			-15.608			-1.734
195802.000			-15.607			-1.734
195901.000			-15.605			-1.734
196000.000			-15.605			-1.734
196101.000			-15.606			-1.734
196200.000			-15.605			-1.734
196300.000			-15.605			-1.734
196400.000			-15.605			-1.734
196500.000			-15.605			-1.734
196601.000			-15.607			-1.734
196701.000			-15.606			-1.734
196801.000			-15.605			-1.734
196901.000			-15.604			-1.734
197000.000			-15.605			-1.734
197100.000			-15.605			-1.734
197201.000			-15.604			-1.734
197300.000			-15.603			-1.734
197400.000			-15.603			-1.734
197501.000			-15.604			-1.734
197601.000			-15.604			-1.734
197701.000			-15.603			-1.734
197802.000			-15.603			-1.734
197900.000			-15.603			-1.734
198000.000			-15.602			-1.734
198101.000			-15.603			-1.734
198200.000			-15.603			-1.734
198300.000			-15.603			-1.734
198401.000			-15.602			-1.734
198500.000			-15.602			-1.734
198601.000			-15.602			-1.734
198702.000			-15.601			-1.733
198800.000			-15.602			-1.734
198900.000			-15.602			-1.734
199001.000			-15.601			-1.733
199100.000			-15.600			-1.733
199200.000			-15.600			-1.733
199301.000			-15.600			-1.733
199400.000			-15.600			-1.733
199500.000			-15.599			-1.733
199602.000			-15.599			-1.733
199701.000			-15.600			-1.733
199801.000			-15.599			-1.733
199900.000			-15.599			-1.733
200000.000			-15.599			-1.733
200101.000			-15.599			-1.733
200200.000			-15.599			-1.733
200300.000			-15.598			-1.733
200401.000			-15.598			-1.733
200501.000			-15.598			-1.733
200601.000			-15.597			-1.733
200702.000			-15.598			-1.733
200800.000			-15.597			-1.733
200900.000			-15.596			-1.733
201001.000			-15.596			-1.733
201100.000			-15.598			-1.733
201200.000			-15.597			-1.733
201301.000			-15.596			-1.733
201400.000			-15.596			-1.733
201501.000			-15.596			-1.733
201602.000			-15.596			-1.733
201701.000			-15.595			-1.733
201800.000			-15.594			-1.733
201901.000			-15.594			-1.733
202000.000			-15.594			-1.733
202100.000			-15.594			-1.733
202201.000			-15.594			-1.733
202300.000			-15.594			-1.733
202400.000			-15.594			-1.733
202502.000			-15.594			-1.733
202601.000			-15.593			-1.733
202700.000			-15.592			-1.732
202800.000			-15.592			-1.732
202900.000			-15.592			-1.732
203001.000			-15.594			-1.733
203100.000			-15.593			-1.733
203200.000			-15.590			-1.732
203301.000			-15.591			-1.732
203401.000			-15.592			-1.732
203501.000			-15.591			-1.732
203601.000			-15.592			-1.732
203700.000			-15.591			-1.732
203800.000			-15.591			-1.732
203901.000			-15.590			-1.732
204000.000			-15.591			-1.732
204100.000			-15.591			-1.732
204201.000			-15.591			-1.732
204301.000			-15.591			-1.732
204401.000			-15.590			-1.732
204501.000			-15.590			-1.732
204600.000			-15.589			-1.732
204700.000			-15.589			-1.732
204801.000			-15.588			-1.732
204900.000			-15.588			-1.732
205000.000			-15.588			-1.732
205101.000			-15.588			-1.732
205200.000			-15.587			-1.732
205301.000			-15.588			-1.732
205402.000			-15.588			-1.732
205500.000			-15.588			-1.732
205600.000			-15.588			-1.732
205701.000			-15.588			-1.732
205800.000			-15.588			-1.732
205900.000			-15.587			-1.732
206000.000			-15.586			-1.732
206100.000			-15.586			-1.732
206202.000			-15.585			-1.732
206301.000			-15.586			-1.732
206401.000			-15.587			-1.732
206501.000			-15.586			-1.732
206600.000			-15.586			-1.732
206700.000			-15.586			-1.732
206801.000			-15.585			-1.732
206900.000			-15.585			-1.732
207000.000			-15.585			-1.732
207101.000			-15.585			-1.732
207201.000			-15.585			-1.732
207301.000			-15.584			-1.732
207401.000			-15.583			-1.731
207500.000			-15.584			-1.732
207600.000			-15.584			-1.732
207701.000			-15.583			-1.731
207800.000			-15.583			-1.731
207900.000			-15.582			-1.731
208001.000			-15.583			-1.731
208101.000			-15.583			-1.731
208201.000			-15.583			-1.731
208302.000			-15.582			-1.731
208400.000			-15.582			-1.731
208500.000			-15.582			-1.731
208601.000			-15.581			-1.731
208700.000			-15.582			-1.731
208800.000			-15.581			-1.731
208901.000			-15.580			-1.731
209001.000			-15.582			-1.731
209102.000			-15.580			-1.731
209201.000			-15.580			-1.731
209300.000			-15.580			-1.731
209401.000			-15.581			-1.731
209500.000			-15.580			-1.731
209600.000			-15.581			-1.731
209701.000			-15.580			-1.731
209800.000			-15.580			-1.731
209900.000			-15.580			-1.731
210002.000			-15.580			-1.731
210101.000			-15.579			-1.731
210201.000			-15.580			-1.731
210301.000			-15.579			-1.731
210400.000			-15.578			-1.731
210500.000			-15.578			-1.731
210601.000			-15.578			-1.731
210700.000			-15.578			-1.731
210800.000			-15.578			-1.731
210901.000			-15.577			-1.731
211001.000			-15.576			-1.731
211101.000			-15.578			-1.731
211201.000			-15.577			-1.731
211300.000			-15.576			-1.731
211400.000			-15.576			-1.731
211501.000			-15.576			-1.731
211600.000			-15.577			-1.731
211700.000			-15.576			-1.731
211801.000			-15.576			-1.731
211901.000			-15.576			-1.731
212001.000			-15.576			-1.731
212102.000			-15.576			-1.731
212200.000			-15.576			-1.731
212300.000			-15.575			-1.731
212400.000			-15.574			-1.730
212500.000			-15.575			-1.731
212601.000			-15.574			-1.730
212700.000			-15.574			-1.730
212800.000			-15.574			-1.730
212902.000			-15.574			-1.730
213001.000			-15.573			-1.730
213100.000			-15.573			-1.730
213201.000			-15.573			-1.730
213300.000			-15.573			-1.730
213400.000			-15.573			-1.730
213501.000			-15.573			-1.730
213600.000			-15.573			-1.730
213700.000			-15.572			-1.730
213802.000			-15.571			-1.730
213901.000			-15.572			-1.730
214000.000			-15.571			-1.730
214101.000			-15.571			-1.730
214200.000			-15.570			-1.730
214300.000			-15.571			-1.730
214401.000			-15.571			-1.730
214500.000			-15.571			-1.730
214600.000			-15.571			-1.730
214702.000			-15.570			-1.730
214801.000			-15.570			-1.730
214900.000			-15.570			-1.730
215001.000			-15.570			-1.730
215100.000			-15.570			-1.730
215200.000			-15.570			-1.730
215301.000			-15.569			-1.730
215400.000			-15.568			-1.730
215500.000			-15.569			-1.730
215602.000			-15.567			-1.730
215701.000			-15.568			-1.730
215802.000			-15.568			-1.730
215900.000			-15.567			-1.730
216000.000			-15.567			-1.730
216101.000			-15.569			-1.730
216200.000			-15.567			-1.730
216300.000			-15.568			-1.730
216401.000			-15.568			-1.730
216500.000			-15.567			-1.730
216601.000			-15.567			-1.730
216702.000			-15.567			-1.730
216801.000			-15.566			-1.730
216900.000			-15.566			-1.730
217001.000			-15.567			-1.730
217100.000			-15.567			-1.730
217200.000			-15.567			-1.730
217301.000			-15.565			-1.729
217400.000			-15.565			-1.729
217500.000			-15.565			-1.729
217602.000			-15.565			-1.729
217701.000			-15.565			-1.729
217800.000			-15.565			-1.729
217901.000			-15.564			-1.729
218000.000			-15.564			-1.729
218100.000			-15.564			-1.729
218201.000			-15.564			-1.729
218300.000			-15.563			-1.729
218400.000			-15.562			-1.729
218502.000			-15.562			-1.729
218601.000			-15.564			-1.729
218702.000			-15.564			-1.729
218800.000			-15.563			-1.729
218900.000			-15.563			-1.729
219001.000			-15.563			-1.729
219100.000			-15.562			-1.729
219200.000			-15.562			-1.729
219301.000			-15.562			-1.729
219400.000			-15.562			-1.729
219501.000			-15.562			-1.729
219602.000			-15.561			-1.729
219700.000			-15.561			-1.729
219800.000			-15.561			-1.729
219901.000			-15.561			-1.729
220000.000			-15.562			-1.729
220100.000			-15.562			-1.729
220201.000			-15.560			-1.729
220300.000			-15.559			-1.729
220401.000			-15.559			-1.729
220502.000			-15.559			-1.729
220600.000			-15.559			-1.729
220700.000			-15.559			-1.729
220801.000			-15.559			-1.729
220900.000			-15.558			-1.729
221000.000			-15.559			-1.729
221101.000			-15.559			-1.729
221200.000			-15.560			-1.729
221301.000			-15.559			-1.729
221402.000			-15.559			-1.729
221501.000			-15.558			-1.729
221600.000			-15.558			-1.729
221701.000			-15.558			-1.729
221800.000			-15.557			-1.729
221900.000			-15.557			-1.729
222000.000			-15.558			-1.729
222100.000			-15.557			-1.729
222201.000			-15.557			-1.729
222301.000			-15.557			-1.729
222401.000			-15.557			-1.729
222501.000			-15.555			-1.728
222600.000			-15.556			-1.728
222700.000			-15.556			-1.728
222801.000			-15.554			-1.728
222900.000			-15.554			-1.728
223000.000			-15.554			-1.728
223101.000			-15.554			-1.728
223201.000			-15.554			-1.728
223301.000			-15.554			-1.728
223401.000			-15.555			-1.728
223500.000			-15.555			-1.728
223600.000			-15.555			-1.728
223701.000			-15.554			-1.728
223800.000			-15.554			-1.728
223900.000			-15.553			-1.728
224001.000			-15.553			-1.728
224101.000			-15.553			-1.728
224201.000			-15.553			-1.728
224302.000			-15.554			-1.728
224400.000			-15.552			-1.728
224500.000			-15.551			-1.728
224601.000			-15.552			-1.728
224700.000			-15.553			-1.728
224800.000			-15.553			-1.728
224901.000			-15.552			-1.728
225000.000			-15.552			-1.728
225102.000			-15.552			-1.728
225201.000			-15.551			-1.728
225300.000			-15.552			-1.728
225401.000			-15.551			-1.728
225500.000			-15.551			-1.728
225600.000			-15.551			-1.728
225701.000			-15.550			-1.728
225800.000			-15.550			-1.728
225900.000			-15.550			-1.728
226002.000			-15.550			-1.728
226101.000			-15.549			-1.728
226200.000			-15.550			-1.728
226301.000			-15.549			-1.728
226400.000			-15.549			-1.728
226500.000			-15.549			-1.728
226601.000			-15.549			-1.728
226700.000			-15.549			-1.728
226800.000			-15.548			-1.728
226902.000			-15.549			-1.728
227001.000			-15.549			-1.728
227101.000			-15.548			-1.728
227201.000			-15.548			-1.728
227300.000			-15.548			-1.728
227400.000			-15.548			-1.728
227501.000			-15.547			-1.727
227600.000			-15.548			-1.728
227700.000			-15.547			-1.727
227801.000			-15.547			-1.727
227901.000			-15.547			-1.727
228001.000			-15.546			-1.727
228101.000			-15.545			-1.727
228200.000			-15.545			-1.727
228300.000			-15.545			-1.727
228400.000			-15.545			-1.727
228500.000			-15.546			-1.727
228601.000			-15.545			-1.727
228700.000			-15.546			-1.727
228801.000			-15.547			-1.727
228902.000			-15.546			-1.727
229001.000			-15.545			-1.727
229100.000			-15.545			-1.727
229201.000			-15.545			-1.727
229300.000			-15.544			-1.727
229400.000			-15.543			-1.727
229501.000			-15.543			-1.727
229600.000			-15.544			-1.727
229700.000			-15.543			-1.727
229802.000			-15.544			-1.727
229901.000			-15.544			-1.727
230000.000			-15.543			-1.727
230101.000			-15.542			-1.727
230200.000			-15.543			-1.727
230300.000			-15.542			-1.727
230401.000			-15.541			-1.727
230500.000			-15.542			-1.727
230600.000			-15.543			-1.727
230702.000			-15.543			-1.727
230801.000			-15.541			-1.727
230900.000			-15.541			-1.727
231001.000			-15.541			-1.727
231100.000			-15.541			-1.727
231200.000			-15.540			-1.727
231301.000			-15.540			-1.727
231400.000			-15.539			-1.727
231500.000			-15.539			-1.727
231602.000			-15.539			-1.727
231701.000			-15.539			-1.727
231802.000			-15.538			-1.726
231900.000			-15.538			-1.726
232000.000			-15.538			-1.726
232101.000			-15.538			-1.726
232200.000			-15.537			-1.726
232300.000			-15.536			-1.726
232401.000			-15.537			-1.726
232501.000			-15.537			-1.726
232601.000			-15.537			-1.726
232702.000			-15.535			-1.726
232800.000			-15.536			-1.726
232900.000			-15.535			-1.726
233001.000			-15.535			-1.726
233100.000			-15.535			-1.726
233200.000			-15.535			-1.726
233301.000			-15.534			-1.726
233400.000			-15.535			-1.726
233501.000			-15.535			-1.726
233602.000			-15.534			-1.726
233700.000			-15.535			-1.726
233800.000			-15.534			-1.726
233901.000			-15.533			-1.726
234000.000			-15.533			-1.726
234100.000			-15.533			-1.726
234201.000			-15.533			-1.726
234300.000			-15.533			-1.726
234401.000			-15.533			-1.726
234502.000			-15.532			-1.726
234600.000			-15.532			-1.726
234700.000			-15.532			-1.726
234800.000			-15.532			-1.726
234900.000			-15.533			-1.726
235001.000			-15.533			-1.726
235100.000			-15.533			-1.726
235200.000			-15.532			-1.726
235302.000			-15.532			-1.726
235401.000			-15.531			-1.726
235501.000			-15.531			-1.726
235601.000			-15.532			-1.726
235700.000			-15.533			-1.726
235800.000			-15.533			-1.726
235901.000			-15.532			-1.726
236000.000			-15.531			-1.726
236100.000			-15.531			-1.726
236202.000			-15.531			-1.726
236301.000			-15.532			-1.726
236401.000			-15.532			-1.726
236501.000			-15.531			-1.726
236600.000			-15.532			-1.726
236700.000			-15.531			-1.726
236801.000			-15.531			-1.726
236900.000			-15.530			-1.726
237000.000			-15.530			-1.726
237101.000			-15.529			-1.725
237201.000			-15.529			-1.725
237301.000			-15.530			-1.726
237401.000			-15.530			-1.726
237500.000			-15.528			-1.725
237600.000			-15.528			-1.725
237701.000			-15.529			-1.725
237800.000			-15.529			-1.725
237900.000			-15.529			-1.725
238000.000			-15.528			-1.725
238101.000			-15.528			-1.725
238202.000			-15.528			-1.725
238301.000			-15.528			-1.725
238400.000			-15.528			-1.725
238501.000			-15.528			-1.725
238600.000			-15.528			-1.725
238700.000			-15.528			-1.725
238801.000			-15.528			-1.725
238900.000			-15.528			-1.725
239000.000			-15.527			-1.725
239102.000			-15.526			-1.725
239201.000			-15.527			-1.725
239301.000			-15.526			-1.725
239401.000			-15.525			-1.725
239500.000			-15.526			-1.725
239600.000			-15.526			-1.725
239701.000			-15.525			-1.725
239800.000			-15.526			-1.725
239900.000			-15.527			-1.725
240001.000			-15.526			-1.725
240101.000			-15.525			-1.725
240201.000			-15.525			-1.725
240301.000			-15.525			-1.725
240400.000			-15.524			-1.725
240500.000			-15.524			-1.725
240601.000			-15.524			-1.725
240700.000			-15.524			-1.725
240800.000			-15.524			-1.725
240901.000			-15.523			-1.725
241001.000			-15.523			-1.725
241102.000			-15.522			-1.725
241200.000			-15.523			-1.725
241300.000			-15.524			-1.725
241401.000			-15.523			-1.725
241500.000			-15.522			-1.725
241600.000			-15.523			-1.725
241701.000			-15.521			-1.725
241800.000			-15.522			-1.725
241901.000			-15.521			-1.725
242002.000			-15.521			-1.725
242100.000			-15.520			-1.724
242200.000			-15.521			-1.725
242301.000			-15.521			-1.725
242400.000			-15.521			-1.725
242500.000			-15.521			-1.725
242601.000			-15.521			-1.725
242700.000			-15.520			-1.724
242801.000			-15.519			-1.724
242902.000			-15.520			-1.724
243001.000			-15.519			-1.724
243100.000			-15.519			-1.724
243201.000			-15.520			-1.724
243300.000			-15.520			-1.724
243400.000			-15.518			-1.724
243501.000			-15.518			-1.724
243600.000			-15.519			-1.724
243700.000			-15.520			-1.724
243802.000			-15.517			-1.724
243901.000			-15.517			-1.724
244000.000			-15.517			-1.724
244101.000			-15.518			-1.724
244200.000			-15.518			-1.724
244300.000			-15.517			-1.724
244400.000			-15.517			-1.724
244500.000			-15.517			-1.724
244601.000			-15.517			-1.724
244701.000			-15.518			-1.724
244801.000			-15.516			-1.724
244901.000			-15.516			-1.724
245000.000			-15.516			-1.724
245100.000			-15.516			-1.724
245201.000			-15.515			-1.724
245300.000			-15.515			-1.724
245400.000			-15.515			-1.724
245501.000			-15.514			-1.724
245601.000			-15.515			-1.724
245701.000			-15.515			-1.724
245801.000			-15.515			-1.724
245900.000			-15.515			-1.724
246000.000			-15.515			-1.724
246101.000			-15.515			-1.724
246200.000			-15.515			-1.724
246300.000			-15.516			-1.724
246401.000			-15.515			-1.724
246501.000			-15.514			-1.724
246601.000			-15.515			-1.724
246702.000			-15.515			-1.724
246800.000			-15.514			-1.724
246900.000			-15.514			-1.724
247001.000			-15.515			-1.724
247100.000			-15.515			-1.724
247200.000			-15.513			-1.724
247301.000			-15.513			-1.724
247400.000			-15.513			-1.724
247502.000			-15.513			-1.724
247601.000			-15.513			-1.724
247700.000			-15.513			-1.724
247801.000			-15.512			-1.724
247900.000			-15.513			-1.724
248000.000			-15.512			-1.724
248101.000			-15.512			-1.724
248200.000			-15.513			-1.724
248300.000			-15.513			-1.724
248402.000			-15.512			-1.724
248501.000			-15.511			-1.723
248601.000			-15.512			-1.724
248701.000			-15.512			-1.724
248800.000			-15.511			-1.723
248900.000			-15.511			-1.723
249001.000			-15.511			-1.723
249100.000			-15.510			-1.723
249200.000			-15.511			-1.723
249301.000			-15.511			-1.723
249401.000			-15.510			-1.723
249501.000			-15.511			-1.723
249601.000			-15.509			-1.723
249700.000			-15.510			-1.723
249800.000			-15.509			-1.723
249901.000			-15.509			-1.723
250000.000			-15.510			-1.723
250100.000			-15.510			-1.723
250201.000			-15.509			-1.723
250301.000			-15.510			-1.723
250401.000			-15.509			-1.723
250501.000			-15.508			-1.723
250600.000			-15.508			-1.723
250700.000			-15.509			-1.723
250800.000			-15.508			-1.723
250900.000			-15.508			-1.723
251001.000			-15.508			-1.723
251100.000			-15.508			-1.723
251201.000			-15.509			-1.723
251302.000			-15.508			-1.723
251401.000			-15.507			-1.723
251500.000			-15.508			-1.723
251601.000			-15.507			-1.723
251700.000			-15.507			-1.723
251800.000			-15.507			-1.723
251901.000			-15.507			-1.723
252000.000			-15.508			-1.723
252100.000			-15.507			-1.723
252202.000			-15.507			-1.723
252301.000			-15.507			-1.723
252400.000			-15.507			-1.723
252501.000			-15.506			-1.723
252600.000			-15.506			-1.723
252700.000			-15.506			-1.723
252801.000			-15.506			-1.723
252900.000			-15.505			-1.723
253000.000			-15.504			-1.723
253102.000			-15.504			-1.723
253201.000			-15.505			-1.723
253300.000			-15.504			-1.723
253401.000			-15.504			-1.723
253500.000			-15.505			-1.723
253600.000			-15.504			-1.723
253701.000			-15.504			-1.723
253800.000			-15.503			-1.723
253900.000			-15.502			-1.722
254002.000			-15.504			-1.723
254101.000			-15.503			-1.723
254202.000			-15.504			-1.723
254300.000			-15.505			-1.723
254400.000			-15.504			-1.723
254501.000			-15.503			-1.723
254600.000			-15.503			-1.723
254700.000			-15.503			-1.723
254801.000			-15.504			-1.723
254901.000			-15.503			-1.723
255001.000			-15.503			-1.723
255102.000			-15.502			-1.722
255200.000			-15.501			-1.722
255300.000			-15.502			-1.722
255401.000			-15.501			-1.722
255500.000			-15.502			-1.722
255600.000			-15.501			-1.722
255701.000			-15.502			-1.722
255800.000			-15.501			-1.722
255901.000			-15.501			-1.722
256002.000			-15.500			-1.722
256100.000			-15.501			-1.722
256200.000			-15.502			-1.722
256301.000			-15.500			-1.722
256400.000			-15.500			-1.722
256500.000			-15.500			-1.722
256601.000			-15.500			-1.722
256700.000			-15.500			-1.722
256801.000			-15.499			-1.722
256902.000			-15.499			-1.722
257001.000			-15.500			-1.722
257100.000			-15.500			-1.722
257200.000			-15.500			-1.722
257300.000			-15.500			-1.722
257401.000			-15.499			-1.722
257500.000			-15.499			-1.722
257600.000			-15.499			-1.722
257701.000			-15.498			-1.722
257801.000			-15.498			-1.722
257901.000			-15.498			-1.722
258002.000			-15.497			-1.722
258100.000			-15.497			-1.722
258200.000			-15.497			-1.722
258301.000			-15.497			-1.722
258400.000			-15.497			-1.722
258500.000			-15.497			-1.722
258601.000			-15.496			-1.722
258700.000			-15.497			-1.722
258801.000			-15.496			-1.722
258902.000			-15.495			-1.722
259001.000			-15.496			-1.722
259100.000			-15.496			-1.722
259201.000			-15.497			-1.722
259300.000			-15.496			-1.722
259400.000			-15.495			-1.722
259501.000			-15.495			-1.722
259600.000			-15.496			-1.722
259700.000			-15.495			-1.722
259802.000			-15.495			-1.722
259901.000			-15.494			-1.722
260000.000			-15.494			-1.722
260101.000			-15.494			-1.722
260200.000			-15.495			-1.722
260300.000			-15.494			-1.722
260400.000			-15.495			-1.722
260500.000			-15.493			-1.721
260601.000			-15.493			-1.721
260701.000			-15.493			-1.721
260801.000			-15.492			-1.721
260902.000			-15.493			-1.721
261000.000			-15.493			-1.721
261100.000			-15.493			-1.721
261201.000			-15.492			-1.721
261300.000			-15.493			-1.721
261400.000			-15.492			-1.721
261501.000			-15.492			-1.721
261600.000			-15.492			-1.721
261701.000			-15.492			-1.721
261802.000			-15.492			-1.721
261900.000			-15.490			-1.721
262000.000			-15.490			-1.721
262101.000			-15.491			-1.721
262200.000			-15.491			-1.721
262300.000			-15.491			-1.721
262401.000			-15.490			-1.721
262500.000			-15.489			-1.721
262601.000			-15.489			-1.721
262702.000			-15.489			-1.721
262801.000			-15.489			-1.721
262900.000			-15.490			-1.721
263001.000			-15.489			-1.721
263100.000			-15.488			-1.721
263200.000			-15.488			-1.721
263301.000			-15.488			-1.721
263400.000			-15.488			-1.721
263500.000			-15.488			-1.721
263602.000			-15.487			-1.721
263701.000			-15.488			-1.721
263801.000			-15.488			-1.721
263900.000			-15.488			-1.721
264000.000			-15.487			-1.721
264101.000			-15.488			-1.721
264200.000			-15.487			-1.721
264300.000			-15.487			-1.721
264401.000			-15.487			-1.721
264500.000			-15.487			-1.721
264601.000			-15.487			-1.721
264702.000			-15.486			-1.721
264800.000			-15.486			-1.721
264900.000			-15.486			-1.721
265001.000			-15.486			-1.721
265100.000			-15.486			-1.721
265200.000			-15.485			-1.721
265301.000			-15.485			-1.721
265400.000			-15.485			-1.721
265501.000			-15.485			-1.721
265602.000			-15.485			-1.721
265701.000			-15.485			-1.721
265800.000			-15.485			-1.721
265901.000			-15.486			-1.721
266000.000			-15.487			-1.721
266100.000			-15.486			-1.721
266201.000			-15.484			-1.720
266300.000			-15.484			-1.720
266400.000			-15.486			-1.721
266502.000			-15.485			-1.721
266601.000			-15.484			-1.720
266700.000			-15.484			-1.720
266800.000			-15.484			-1.720
266900.000			-15.483			-1.720
267001.000			-15.483			-1.720
267100.000			-15.483			-1.720
267200.000			-15.483			-1.720
267301.000			-15.482			-1.720
267401.000			-15.482			-1.720
267501.000			-15.483			-1.720
267602.000			-15.483			-1.720
267700.000			-15.483			-1.720
267800.000			-15.482			-1.720
267901.000			-15.482			-1.720
268000.000			-15.481			-1.720
268100.000			-15.481			-1.720
268201.000			-15.481			-1.720
268300.000			-15.481			-1.720
268401.000			-15.481			-1.720
268502.000			-15.480			-1.720
268601.000			-15.480			-1.720
268700.000			-15.479			-1.720
268801.000			-15.480			-1.720
268900.000			-15.480			-1.720
269000.000			-15.479			-1.720
269101.000			-15.480			-1.720
269200.000			-15.479			-1.720
269300.000			-15.479			-1.720
269402.000			-15.479			-1.720
269501.000			-15.480			-1.720
269600.000			-15.480			-1.720
269701.000			-15.478			-1.720
269800.000			-15.478			-1.720
269900.000			-15.478			-1.720
270000.000			-15.479			-1.720
270100.000			-15.479			-1.720
270201.000			-15.478			-1.720
270300.000			-15.477			-1.720
270401.000			-15.477			-1.720
270502.000			-15.479			-1.720
270600.000			-15.478			-1.720
270700.000			-15.477			-1.720
270801.000			-15.476			-1.720
270900.000			-15.477			-1.720
271000.000			-15.476			-1.720
271101.000			-15.477			-1.720
271200.000			-15.477			-1.720
271301.000			-15.476			-1.720
271402.000			-15.476			-1.720
271501.000			-15.475			-1.719
271600.000			-15.475			-1.719
271701.000			-15.476			-1.720
271800.000			-15.476			-1.720
271900.000			-15.475			-1.719
272001.000			-15.475			-1.719
272100.000			-15.475			-1.719
272200.000			-15.476			-1.720
272302.000			-15.476			-1.720
272401.000			-15.475			-1.719
272500.000			-15.474			-1.719
272601.000			-15.473			-1.719
272700.000			-15.474			-1.719
272800.000			-15.474			-1.719
272901.000			-15.474			-1.719
273000.000			-15.474			-1.719
273100.000			-15.473			-1.719
273202.000			-15.473			-1.719
273301.000			-15.472			-1.719
273402.000			-15.473			-1.719
273500.000			-15.474			-1.719
273600.000			-15.473			-1.719
273701.000			-15.473			-1.719
273800.000			-15.472			-1.719
273900.000			-15.473			-1.719
274001.000			-15.474			-1.719
274100.000			-15.473			-1.719
274201.000			-15.472			-1.719
274302.000			-15.472			-1.719
274401.000			-15.472			-1.719
274500.000			-15.472			-1.719
274601.000			-15.471			-1.719
274700.000			-15.471			-1.719
274800.000			-15.471			-1.719
274901.000			-15.471			-1.719
275000.000			-15.470			-1.719
275100.000			-15.472			-1.719
275202.000			-15.472			-1.719
275301.000			-15.470			-1.719
275400.000			-15.470			-1.719
275501.000			-15.471			-1.719
275600.000			-15.471			-1.719
275700.000			-15.470			-1.719
275801.000			-15.469			-1.719
275900.000			-15.467			-1.719
276000.000			-15.468			-1.719
276102.000			-15.470			-1.719
276201.000			-15.468			-1.719
276300.000			-15.469			-1.719
276400.000			-15.469			-1.719
276500.000			-15.468			-1.719
276601.000			-15.469			-1.719
276700.000			-15.468			-1.719
276800.000			-15.468			-1.719
276901.000			-15.468			-1.719
277000.000			-15.467			-1.719
277101.000			-15.467			-1.719
277202.000			-15.467			-1.719
277300.000			-15.467			-1.719
277400.000			-15.467			-1.719
277501.000			-15.467			-1.719
277600.000			-15.468			-1.719
277700.000			-15.467			-1.719
277801.000			-15.466			-1.718
277900.000			-15.465			-1.718
278000.000			-15.465			-1.718
278102.000			-15.465			-1.718
278201.000			-15.466			-1.718
278300.000			-15.466			-1.718
278401.000			-15.465			-1.718
278500.000			-15.464			-1.718
278600.000			-15.464			-1.718
278701.000			-15.464			-1.718
278800.000			-15.465			-1.718
278900.000			-15.464			-1.718
279002.000			-15.464			-1.718
279101.000			-15.464			-1.718
279201.000			-15.462			-1.718
279301.000			-15.462			-1.718
279400.000			-15.463			-1.718
279500.000			-15.463			-1.718
279600.000			-15.463			-1.718
279700.000			-15.462			-1.718
279801.000			-15.462			-1.718
279900.000			-15.462			-1.718
280001.000			-15.463			-1.718
280102.000			-15.462			-1.718
280201.000			-15.461			-1.718
280300.000			-15.462			-1.718
280401.000			-15.462			-1.718
280500.000			-15.462			-1.718
280600.000			-15.462			-1.718
280701.000			-15.462			-1.718
280800.000			-15.462			-1.718
280901.000			-15.461			-1.718
281002.000			-15.460			-1.718
281101.000			-15.461			-1.718
281200.000			-15.462			-1.718
281301.000			-15.461			-1.718
281400.000			-15.460			-1.718
281500.000			-15.461			-1.718
281601.000			-15.461			-1.718
281700.000			-15.461			-1.718
281800.000			-15.461			-1.718
281902.000			-15.461			-1.718
282001.000			-15.461			-1.718
282100.000			-15.460			-1.718
282201.000			-15.459			-1.718
282300.000			-15.459			-1.718
282400.000			-15.460			-1.718
282501.000			-15.459			-1.718
282600.000			-15.459			-1.718
282700.000			-15.459			-1.718
282802.000			-15.458			-1.718
282901.000			-15.458			-1.718
283002.000			-15.459			-1.718
283100.000			-15.459			-1.718
283200.000			-15.460			-1.718
283301.000			-15.460			-1.718
283400.000			-15.459			-1.718
283500.000			-15.459			-1.718
283601.000			-15.459			-1.718
283700.000			-15.459			-1.718
283801.000			-15.459			-1.718
283902.000			-15.458			-1.718
284001.000			-15.456			-1.717
284100.000			-15.456			-1.717
284201.000			-15.456			-1.717
284300.000			-15.457			-1.717
284400.000			-15.458			-1.718
284501.000			-15.457			-1.717
284600.000			-15.456			-1.717
284700.000			-15.456			-1.717
284802.000			-15.457			-1.717
284901.000			-15.456			-1.717
285000.000			-15.455			-1.717
285101.000			-15.456			-1.717
285200.000			-15.455			-1.717
285300.000			-15.455			-1.717
285401.000			-15.455			-1.717
285500.000			-15.455			-1.717
285600.000			-15.456			-1.717
285702.000			-15.456			-1.717
285801.000			-15.457			-1.717
285902.000			-15.456			-1.717
286000.000			-15.454			-1.717
286100.000			-15.454			-1.717
286201.000			-15.454			-1.717
286300.000			-15.454			-1.717
286400.000			-15.453			-1.717
286501.000			-15.453			-1.717
286600.000			-15.454			-1.717
286701.000			-15.453			-1.717
286802.000			-15.453			-1.717
286901.000			-15.453			-1.717
287000.000			-15.453			-1.717
287101.000			-15.453			-1.717
287200.000			-15.453			-1.717
287300.000			-15.453			-1.717
287401.000			-15.451			-1.717
287500.000			-15.452			-1.717
287600.000			-15.452			-1.717
287702.000			-15.452			-1.717
287801.000			-15.452			-1.717
287900.000			-15.451			-1.717
288001.000			-15.450			-1.717
288100.000			-15.451			-1.717
288200.000			-15.452			-1.717
288301.000			-15.452			-1.717
288400.000			-15.451			-1.717
288500.000			-15.451			-1.717
288602.000			-15.451			-1.717
288701.000			-15.450			-1.717
288800.000			-15.449			-1.717
288901.000			-15.450			-1.717
289000.000			-15.452			-1.717
289100.000			-15.452			-1.717
289200.000			-15.450			-1.717
289300.000			-15.449			-1.717
289401.000			-15.451			-1.717
289500.000			-15.449			-1.717
289601.000			-15.449			-1.717
289702.000			-15.450			-1.717
289800.000			-15.449			-1.717
289900.000			-15.448			-1.716
290001.000			-15.449			-1.717
290100.000			-15.448			-1.716
290200.000			-15.448			-1.716
290301.000			-15.448			-1.716
290400.000			-15.448			-1.716
290501.000			-15.448			-1.716
290602.000			-15.447			-1.716
290701.000			-15.446			-1.716
290800.000			-15.446			-1.716
290901.000			-15.446			-1.716
291000.000			-15.447			-1.716
291100.000			-15.447			-1.716
291201.000			-15.447			-1.716
291300.000			-15.447			-1.716
291400.000			-15.448			-1.716
291502.000			-15.446			-1.716
291601.000			-15.446			-1.716
291700.000			-15.447			-1.716
291801.000			-15.444			-1.716
291900.000			-15.445			-1.716
292000.000			-15.445			-1.716
292101.000			-15.445			-1.716
292200.000			-15.445			-1.716
292300.000			-15.445			-1.716
292402.000			-15.445			-1.716
292501.000			-15.445			-1.716
292601.000			-15.445			-1.716
292700.000			-15.444			-1.716
292800.000			-15.443			-1.716
292901.000			-15.443			-1.716
293000.000			-15.444			-1.716
293100.000			-15.444			-1.716
293201.000			-15.443			-1.716
293301.000			-15.443			-1.716
293401.000			-15.443			-1.716
293502.000			-15.442			-1.716
293600.000			-15.441			-1.716
293700.000			-15.442			-1.716
293801.000			-15.442			-1.716
293900.000			-15.443			-1.716
294000.000			-15.443			-1.716
294101.000			-15.443			-1.716
294201.000			-15.442			-1.716
294301.000			-15.442			-1.716
294402.000			-15.442			-1.716
294500.000			-15.442			-1.716
294600.000			-15.441			-1.716
294701.000			-15.443			-1.716
294800.000			-15.442			-1.716
294900.000			-15.442			-1.716
295001.000			-15.441			-1.716
295100.000			-15.440			-1.716
295201.000			-15.440			-1.716
295302.000			-15.440			-1.716
295401.000			-15.439			-1.715
295500.000			-15.440			-1.716
295600.000			-15.440			-1.716
295700.000			-15.439			-1.715
295801.000			-15.439			-1.715
295900.000			-15.439			-1.715
296000.000			-15.439			-1.715
296101.000			-15.439			-1.715
296201.000			-15.438			-1.715
296301.000			-15.438			-1.715
296401.000			-15.439			-1.715
296500.000			-15.439			-1.715
296600.000			-15.437			-1.715
296701.000			-15.438			-1.715
296800.000			-15.439			-1.715
296900.000			-15.437			-1.715
297001.000			-15.438			-1.715
297100.000			-15.437			-1.715
297201.000			-15.438			-1.715
297302.000			-15.438			-1.715
297400.000			-15.438			-1.715
297500.000			-15.437			-1.715
297601.000			-15.436			-1.715
297700.000			-15.437			-1.715
297800.000			-15.437			-1.715
297901.000			-15.437			-1.715
298000.000			-15.436			-1.715
298100.000			-15.437			-1.715
298202.000			-15.436			-1.715
298301.000			-15.435			-1.715
298400.000			-15.435			-1.715
298501.000			-15.436			-1.715
298600.000			-15.436			-1.715
298700.000			-15.435			-1.715
298800.000			-15.435			-1.715
298900.000			-15.434			-1.715
299001.000			-15.433			-1.715
299101.000			-15.435			-1.715
299201.000			-15.434			-1.715
299302.000			-15.436			-1.715
299400.000			-15.435			-1.715
299500.000			-15.434			-1.715
299601.000			-15.436			-1.715
299700.000			-15.435			-1.715
299800.000			-15.434			-1.715
299901.000			-15.433			-1.715
