# Acquired on 08/01/2024 14:32:14 
# SPIDER: Creep_4mm_07714532C-1
# CREEP MEASUREMENT

# time [ms]		force [N]		stiffness [N/mm]
0.000			-4.512			-1.128
101.000			-4.995			-1.249
200.000			-5.221			-1.305
300.000			-5.240			-1.310
402.000			-5.218			-1.305
500.000			-5.201			-1.300
600.000			-5.186			-1.296
701.000			-5.173			-1.293
800.000			-5.163			-1.291
900.000			-5.153			-1.288
1001.000			-5.144			-1.286
1101.000			-5.128			-1.282
1202.000			-5.122			-1.280
1300.000			-5.115			-1.279
1400.000			-5.108			-1.277
1501.000			-5.103			-1.276
1600.000			-5.098			-1.274
1700.000			-5.093			-1.273
1802.000			-5.084			-1.271
1901.000			-5.079			-1.270
2000.000			-5.075			-1.269
2101.000			-5.070			-1.268
2200.000			-5.066			-1.266
2300.000			-5.062			-1.266
2401.000			-5.060			-1.265
2501.000			-5.052			-1.263
2601.000			-5.049			-1.262
2701.000			-5.046			-1.262
2800.000			-5.042			-1.261
2900.000			-5.039			-1.260
3001.000			-5.037			-1.259
3100.000			-5.033			-1.258
3200.000			-5.031			-1.258
3302.000			-5.026			-1.256
3401.000			-5.024			-1.256
3500.000			-5.021			-1.255
3601.000			-5.019			-1.255
3700.000			-5.016			-1.254
3800.000			-5.014			-1.253
3901.000			-5.012			-1.253
4001.000			-5.007			-1.252
4101.000			-5.005			-1.251
4201.000			-5.003			-1.251
4300.000			-5.000			-1.250
4400.000			-4.999			-1.250
4500.000			-4.997			-1.249
4600.000			-4.996			-1.249
4702.000			-4.991			-1.248
4801.000			-4.990			-1.247
4900.000			-4.988			-1.247
5001.000			-4.986			-1.247
5100.000			-4.983			-1.246
5200.000			-4.982			-1.245
5301.000			-4.981			-1.245
5400.000			-4.976			-1.244
5501.000			-4.975			-1.244
5602.000			-4.974			-1.243
5700.000			-4.973			-1.243
5800.000			-4.972			-1.243
5901.000			-4.969			-1.242
6000.000			-4.968			-1.242
6100.000			-4.967			-1.242
6201.000			-4.963			-1.241
6301.000			-4.961			-1.240
6401.000			-4.961			-1.240
6501.000			-4.959			-1.240
6600.000			-4.958			-1.239
6700.000			-4.957			-1.239
6801.000			-4.956			-1.239
6900.000			-4.953			-1.238
7000.000			-4.951			-1.238
7102.000			-4.949			-1.237
7201.000			-4.948			-1.237
7300.000			-4.949			-1.237
7401.000			-4.947			-1.237
7500.000			-4.945			-1.236
7600.000			-4.942			-1.235
7700.000			-4.941			-1.235
7800.000			-4.940			-1.235
7902.000			-4.940			-1.235
8001.000			-4.938			-1.235
8100.000			-4.937			-1.234
8201.000			-4.935			-1.234
8300.000			-4.934			-1.234
8400.000			-4.934			-1.233
8501.000			-4.932			-1.233
8601.000			-4.931			-1.233
8701.000			-4.929			-1.232
8801.000			-4.927			-1.232
8900.000			-4.927			-1.232
9000.000			-4.927			-1.232
9101.000			-4.924			-1.231
9200.000			-4.923			-1.231
9300.000			-4.923			-1.231
9402.000			-4.922			-1.231
9501.000			-4.921			-1.230
9600.000			-4.920			-1.230
9701.000			-4.920			-1.230
9800.000			-4.917			-1.229
9900.000			-4.915			-1.229
10001.000			-4.915			-1.229
10101.000			-4.913			-1.228
10201.000			-4.912			-1.228
10301.000			-4.912			-1.228
10400.000			-4.911			-1.228
10500.000			-4.909			-1.227
10601.000			-4.908			-1.227
10700.000			-4.908			-1.227
10800.000			-4.906			-1.226
10902.000			-4.905			-1.226
11001.000			-4.905			-1.226
11101.000			-4.905			-1.226
11200.000			-4.903			-1.226
11300.000			-4.902			-1.226
11401.000			-4.902			-1.225
11500.000			-4.900			-1.225
11600.000			-4.899			-1.225
11702.000			-4.900			-1.225
11801.000			-4.899			-1.225
11900.000			-4.897			-1.224
12001.000			-4.896			-1.224
12100.000			-4.896			-1.224
12200.000			-4.895			-1.224
12301.000			-4.894			-1.224
12400.000			-4.894			-1.223
12501.000			-4.892			-1.223
12602.000			-4.892			-1.223
12701.000			-4.890			-1.222
12800.000			-4.890			-1.222
12901.000			-4.889			-1.222
13000.000			-4.888			-1.222
13100.000			-4.887			-1.222
13201.000			-4.885			-1.221
13300.000			-4.886			-1.222
13401.000			-4.884			-1.221
13502.000			-4.884			-1.221
13600.000			-4.883			-1.221
13700.000			-4.882			-1.220
13801.000			-4.882			-1.220
13900.000			-4.881			-1.220
14000.000			-4.880			-1.220
14100.000			-4.880			-1.220
14201.000			-4.879			-1.220
14302.000			-4.879			-1.220
14400.000			-4.877			-1.219
14500.000			-4.876			-1.219
14601.000			-4.877			-1.219
14700.000			-4.875			-1.219
14800.000			-4.875			-1.219
14901.000			-4.873			-1.218
15001.000			-4.873			-1.218
15101.000			-4.872			-1.218
15201.000			-4.872			-1.218
15300.000			-4.871			-1.218
15400.000			-4.871			-1.218
15501.000			-4.870			-1.218
15600.000			-4.868			-1.217
15700.000			-4.867			-1.217
15802.000			-4.867			-1.217
15901.000			-4.866			-1.217
16000.000			-4.866			-1.216
16101.000			-4.865			-1.216
16200.000			-4.864			-1.216
16300.000			-4.863			-1.216
16401.000			-4.863			-1.216
16500.000			-4.863			-1.216
16601.000			-4.862			-1.216
16702.000			-4.862			-1.215
16800.000			-4.861			-1.215
16900.000			-4.860			-1.215
17001.000			-4.860			-1.215
17100.000			-4.859			-1.215
17200.000			-4.858			-1.215
17300.000			-4.857			-1.214
17401.000			-4.856			-1.214
17502.000			-4.855			-1.214
17600.000			-4.855			-1.214
17700.000			-4.855			-1.214
17801.000			-4.853			-1.213
17900.000			-4.853			-1.213
18000.000			-4.853			-1.213
18101.000			-4.852			-1.213
18201.000			-4.851			-1.213
18301.000			-4.851			-1.213
18401.000			-4.850			-1.212
18500.000			-4.849			-1.212
18600.000			-4.849			-1.212
18701.000			-4.848			-1.212
18800.000			-4.848			-1.212
18900.000			-4.848			-1.212
19002.000			-4.847			-1.212
19101.000			-4.846			-1.211
19200.000			-4.845			-1.211
19301.000			-4.845			-1.211
19400.000			-4.845			-1.211
19500.000			-4.844			-1.211
19601.000			-4.844			-1.211
19700.000			-4.844			-1.211
19801.000			-4.844			-1.211
19902.000			-4.842			-1.211
20000.000			-4.841			-1.210
20100.000			-4.841			-1.210
20201.000			-4.839			-1.210
20300.000			-4.840			-1.210
20400.000			-4.840			-1.210
20500.000			-4.838			-1.210
20601.000			-4.838			-1.209
20702.000			-4.839			-1.210
20800.000			-4.838			-1.209
20900.000			-4.836			-1.209
21001.000			-4.836			-1.209
21100.000			-4.836			-1.209
21200.000			-4.835			-1.209
21301.000			-4.835			-1.209
21401.000			-4.835			-1.209
21501.000			-4.834			-1.208
21601.000			-4.832			-1.208
21700.000			-4.833			-1.208
21800.000			-4.833			-1.208
21901.000			-4.832			-1.208
22000.000			-4.832			-1.208
22100.000			-4.831			-1.208
22202.000			-4.830			-1.208
22301.000			-4.830			-1.207
22400.000			-4.828			-1.207
22501.000			-4.828			-1.207
22600.000			-4.829			-1.207
22700.000			-4.828			-1.207
22801.000			-4.827			-1.207
22901.000			-4.826			-1.207
23001.000			-4.827			-1.207
23101.000			-4.827			-1.207
23200.000			-4.825			-1.206
23300.000			-4.824			-1.206
23401.000			-4.824			-1.206
23500.000			-4.823			-1.206
23600.000			-4.823			-1.206
23702.000			-4.824			-1.206
23801.000			-4.823			-1.206
23901.000			-4.822			-1.205
24000.000			-4.821			-1.205
24100.000			-4.821			-1.205
24201.000			-4.820			-1.205
24300.000			-4.820			-1.205
24400.000			-4.818			-1.205
24502.000			-4.819			-1.205
24601.000			-4.819			-1.205
24700.000			-4.818			-1.205
24801.000			-4.818			-1.204
24900.000			-4.818			-1.205
25000.000			-4.818			-1.204
25101.000			-4.818			-1.204
25200.000			-4.816			-1.204
25301.000			-4.816			-1.204
25402.000			-4.816			-1.204
25500.000			-4.815			-1.204
25600.000			-4.815			-1.204
25701.000			-4.815			-1.204
25800.000			-4.813			-1.203
25900.000			-4.814			-1.204
26001.000			-4.814			-1.204
26101.000			-4.813			-1.203
26201.000			-4.812			-1.203
26301.000			-4.811			-1.203
26400.000			-4.813			-1.203
26500.000			-4.810			-1.202
26601.000			-4.810			-1.202
26700.000			-4.810			-1.202
26800.000			-4.809			-1.202
26902.000			-4.809			-1.202
27001.000			-4.809			-1.202
27101.000			-4.808			-1.202
27200.000			-4.807			-1.202
27300.000			-4.808			-1.202
27401.000			-4.807			-1.202
27500.000			-4.807			-1.202
27600.000			-4.805			-1.201
27702.000			-4.805			-1.201
27801.000			-4.805			-1.201
27900.000			-4.806			-1.201
28001.000			-4.805			-1.201
28100.000			-4.803			-1.201
28200.000			-4.802			-1.201
28301.000			-4.803			-1.201
28400.000			-4.803			-1.201
28501.000			-4.803			-1.201
28602.000			-4.802			-1.201
28700.000			-4.803			-1.201
28800.000			-4.802			-1.201
28901.000			-4.802			-1.201
29000.000			-4.802			-1.200
29100.000			-4.801			-1.200
29201.000			-4.801			-1.200
29301.000			-4.801			-1.200
29401.000			-4.800			-1.200
29501.000			-4.799			-1.200
29600.000			-4.799			-1.200
29700.000			-4.800			-1.200
29801.000			-4.799			-1.200
29900.000			-4.798			-1.200
30000.000			-4.797			-1.199
30102.000			-4.797			-1.199
30201.000			-4.797			-1.199
30301.000			-4.796			-1.199
30400.000			-4.794			-1.199
30500.000			-4.795			-1.199
30601.000			-4.795			-1.199
30700.000			-4.794			-1.199
30800.000			-4.793			-1.198
30902.000			-4.793			-1.198
31001.000			-4.793			-1.198
31100.000			-4.793			-1.198
31201.000			-4.792			-1.198
31300.000			-4.792			-1.198
31400.000			-4.791			-1.198
31501.000			-4.791			-1.198
31601.000			-4.791			-1.198
31701.000			-4.791			-1.198
31802.000			-4.791			-1.198
31900.000			-4.790			-1.197
32000.000			-4.790			-1.198
32101.000			-4.790			-1.197
32200.000			-4.789			-1.197
32300.000			-4.789			-1.197
32401.000			-4.788			-1.197
32501.000			-4.788			-1.197
32601.000			-4.788			-1.197
32701.000			-4.788			-1.197
32800.000			-4.788			-1.197
32900.000			-4.787			-1.197
33001.000			-4.786			-1.196
33100.000			-4.785			-1.196
33200.000			-4.785			-1.196
33302.000			-4.784			-1.196
33401.000			-4.784			-1.196
33501.000			-4.785			-1.196
33600.000			-4.785			-1.196
33700.000			-4.784			-1.196
33801.000			-4.784			-1.196
33900.000			-4.783			-1.196
34000.000			-4.783			-1.196
34102.000			-4.783			-1.196
34201.000			-4.783			-1.196
34300.000			-4.782			-1.195
34401.000			-4.781			-1.195
34500.000			-4.781			-1.195
34600.000			-4.781			-1.195
34701.000			-4.780			-1.195
34800.000			-4.780			-1.195
34901.000			-4.780			-1.195
35002.000			-4.780			-1.195
35100.000			-4.779			-1.195
35200.000			-4.779			-1.195
35301.000			-4.778			-1.195
35400.000			-4.779			-1.195
35500.000			-4.777			-1.194
35601.000			-4.777			-1.194
35701.000			-4.778			-1.194
35801.000			-4.777			-1.194
35901.000			-4.777			-1.194
36000.000			-4.776			-1.194
36100.000			-4.776			-1.194
36201.000			-4.775			-1.194
36300.000			-4.774			-1.194
36400.000			-4.775			-1.194
36502.000			-4.775			-1.194
36601.000			-4.774			-1.194
36701.000			-4.774			-1.193
36800.000			-4.773			-1.193
36900.000			-4.774			-1.193
37001.000			-4.773			-1.193
37100.000			-4.772			-1.193
37200.000			-4.772			-1.193
37302.000			-4.772			-1.193
37401.000			-4.771			-1.193
37500.000			-4.772			-1.193
37601.000			-4.772			-1.193
37700.000			-4.771			-1.193
37800.000			-4.771			-1.193
37901.000			-4.771			-1.193
38000.000			-4.771			-1.193
38101.000			-4.769			-1.192
38202.000			-4.770			-1.192
38300.000			-4.769			-1.192
38400.000			-4.769			-1.192
38501.000			-4.769			-1.192
38600.000			-4.768			-1.192
38700.000			-4.767			-1.192
38801.000			-4.767			-1.192
38901.000			-4.767			-1.192
39001.000			-4.767			-1.192
39101.000			-4.767			-1.192
39200.000			-4.767			-1.192
39300.000			-4.767			-1.192
39401.000			-4.767			-1.192
39500.000			-4.766			-1.192
39600.000			-4.765			-1.191
39702.000			-4.765			-1.191
39801.000			-4.766			-1.191
39902.000			-4.765			-1.191
40000.000			-4.765			-1.191
40100.000			-4.765			-1.191
40201.000			-4.764			-1.191
40300.000			-4.763			-1.191
40400.000			-4.763			-1.191
40502.000			-4.764			-1.191
40601.000			-4.762			-1.191
40700.000			-4.762			-1.191
40801.000			-4.762			-1.191
40900.000			-4.762			-1.191
41000.000			-4.763			-1.191
41101.000			-4.763			-1.191
41200.000			-4.763			-1.191
41301.000			-4.762			-1.191
41402.000			-4.762			-1.190
41500.000			-4.761			-1.190
41600.000			-4.761			-1.190
41701.000			-4.761			-1.190
41800.000			-4.759			-1.190
41900.000			-4.759			-1.190
42001.000			-4.759			-1.190
42101.000			-4.760			-1.190
42201.000			-4.760			-1.190
42301.000			-4.761			-1.190
42400.000			-4.759			-1.190
42500.000			-4.758			-1.190
42601.000			-4.758			-1.189
42700.000			-4.758			-1.189
42800.000			-4.758			-1.189
42902.000			-4.757			-1.189
43001.000			-4.756			-1.189
43101.000			-4.756			-1.189
43200.000			-4.756			-1.189
43300.000			-4.756			-1.189
43401.000			-4.755			-1.189
43500.000			-4.755			-1.189
43600.000			-4.756			-1.189
43702.000			-4.755			-1.189
43801.000			-4.755			-1.189
43900.000			-4.754			-1.189
44001.000			-4.754			-1.188
44100.000			-4.754			-1.188
44200.000			-4.754			-1.188
44301.000			-4.754			-1.188
44400.000			-4.754			-1.188
44501.000			-4.753			-1.188
44602.000			-4.753			-1.188
44700.000			-4.753			-1.188
44800.000			-4.752			-1.188
44901.000			-4.752			-1.188
45000.000			-4.752			-1.188
45100.000			-4.751			-1.188
45201.000			-4.751			-1.188
45301.000			-4.751			-1.188
45401.000			-4.752			-1.188
45501.000			-4.751			-1.188
45600.000			-4.750			-1.187
45700.000			-4.749			-1.187
45801.000			-4.749			-1.187
45900.000			-4.749			-1.187
46000.000			-4.749			-1.187
46102.000			-4.749			-1.187
46201.000			-4.749			-1.187
46301.000			-4.748			-1.187
46400.000			-4.747			-1.187
46500.000			-4.748			-1.187
46601.000			-4.747			-1.187
46700.000			-4.747			-1.187
46800.000			-4.746			-1.187
46902.000			-4.746			-1.187
47001.000			-4.745			-1.186
47100.000			-4.745			-1.186
47201.000			-4.744			-1.186
47300.000			-4.745			-1.186
47400.000			-4.746			-1.187
47501.000			-4.745			-1.186
47600.000			-4.745			-1.186
47701.000			-4.744			-1.186
47802.000			-4.744			-1.186
47900.000			-4.743			-1.186
48000.000			-4.744			-1.186
48101.000			-4.745			-1.186
48200.000			-4.744			-1.186
48300.000			-4.743			-1.186
48401.000			-4.742			-1.186
48501.000			-4.742			-1.185
48601.000			-4.741			-1.185
48701.000			-4.742			-1.185
48800.000			-4.741			-1.185
48900.000			-4.741			-1.185
49001.000			-4.741			-1.185
49100.000			-4.740			-1.185
49200.000			-4.740			-1.185
49302.000			-4.740			-1.185
49401.000			-4.740			-1.185
49501.000			-4.739			-1.185
49600.000			-4.740			-1.185
49700.000			-4.740			-1.185
49801.000			-4.740			-1.185
49900.000			-4.739			-1.185
50000.000			-4.739			-1.185
50102.000			-4.739			-1.185
50201.000			-4.738			-1.184
50300.000			-4.738			-1.185
50401.000			-4.738			-1.184
50500.000			-4.739			-1.185
50600.000			-4.739			-1.185
50701.000			-4.738			-1.184
50800.000			-4.738			-1.184
50901.000			-4.737			-1.184
51002.000			-4.737			-1.184
51101.000			-4.736			-1.184
51200.000			-4.736			-1.184
51301.000			-4.735			-1.184
51400.000			-4.736			-1.184
51500.000			-4.736			-1.184
51601.000			-4.736			-1.184
51701.000			-4.736			-1.184
51801.000			-4.735			-1.184
51901.000			-4.735			-1.184
52000.000			-4.735			-1.184
52100.000			-4.734			-1.184
52201.000			-4.733			-1.183
52300.000			-4.734			-1.184
52400.000			-4.734			-1.184
52502.000			-4.733			-1.183
52601.000			-4.733			-1.183
52701.000			-4.732			-1.183
52800.000			-4.733			-1.183
52900.000			-4.733			-1.183
53001.000			-4.732			-1.183
53100.000			-4.732			-1.183
53200.000			-4.732			-1.183
53302.000			-4.732			-1.183
53401.000			-4.731			-1.183
53500.000			-4.732			-1.183
53601.000			-4.731			-1.183
53700.000			-4.730			-1.183
53800.000			-4.731			-1.183
53901.000			-4.731			-1.183
54001.000			-4.731			-1.183
54101.000			-4.730			-1.182
54202.000			-4.730			-1.182
54300.000			-4.729			-1.182
54400.000			-4.728			-1.182
54501.000			-4.729			-1.182
54600.000			-4.729			-1.182
54700.000			-4.728			-1.182
54801.000			-4.728			-1.182
54901.000			-4.728			-1.182
55001.000			-4.729			-1.182
55101.000			-4.728			-1.182
55200.000			-4.727			-1.182
55300.000			-4.727			-1.182
55401.000			-4.727			-1.182
55500.000			-4.727			-1.182
55602.000			-4.726			-1.181
55701.000			-4.726			-1.182
55801.000			-4.726			-1.182
55901.000			-4.727			-1.182
56000.000			-4.726			-1.181
56100.000			-4.726			-1.181
56201.000			-4.726			-1.182
56300.000			-4.725			-1.181
56401.000			-4.725			-1.181
56502.000			-4.723			-1.181
56600.000			-4.723			-1.181
56700.000			-4.723			-1.181
56801.000			-4.725			-1.181
56900.000			-4.724			-1.181
57000.000			-4.725			-1.181
57101.000			-4.723			-1.181
57201.000			-4.723			-1.181
57301.000			-4.723			-1.181
57401.000			-4.723			-1.181
57500.000			-4.723			-1.181
57600.000			-4.724			-1.181
57701.000			-4.724			-1.181
57800.000			-4.723			-1.181
57900.000			-4.722			-1.181
58002.000			-4.722			-1.180
58101.000			-4.721			-1.180
58200.000			-4.722			-1.180
58301.000			-4.722			-1.180
58400.000			-4.722			-1.180
58500.000			-4.721			-1.180
58601.000			-4.721			-1.180
58700.000			-4.721			-1.180
58802.000			-4.721			-1.180
58901.000			-4.720			-1.180
59000.000			-4.719			-1.180
59101.000			-4.718			-1.179
59200.000			-4.720			-1.180
59300.000			-4.719			-1.180
59401.000			-4.719			-1.180
59500.000			-4.720			-1.180
59601.000			-4.718			-1.180
59702.000			-4.719			-1.180
59801.000			-4.719			-1.180
59900.000			-4.717			-1.179
60001.000			-4.717			-1.179
60100.000			-4.718			-1.179
60200.000			-4.718			-1.179
60301.000			-4.717			-1.179
60401.000			-4.717			-1.179
60501.000			-4.716			-1.179
60601.000			-4.715			-1.179
60700.000			-4.717			-1.179
60800.000			-4.717			-1.179
60901.000			-4.717			-1.179
61000.000			-4.716			-1.179
61100.000			-4.716			-1.179
61202.000			-4.716			-1.179
61301.000			-4.716			-1.179
61400.000			-4.715			-1.179
61501.000			-4.715			-1.179
61600.000			-4.715			-1.179
61700.000			-4.714			-1.179
61801.000			-4.714			-1.179
61900.000			-4.714			-1.179
62002.000			-4.714			-1.179
62101.000			-4.713			-1.178
62200.000			-4.713			-1.178
62301.000			-4.712			-1.178
62400.000			-4.713			-1.178
62500.000			-4.714			-1.178
62601.000			-4.714			-1.178
62700.000			-4.711			-1.178
62801.000			-4.713			-1.178
62902.000			-4.713			-1.178
63000.000			-4.712			-1.178
63100.000			-4.713			-1.178
63201.000			-4.713			-1.178
63300.000			-4.712			-1.178
63400.000			-4.712			-1.178
63501.000			-4.712			-1.178
63601.000			-4.712			-1.178
63701.000			-4.712			-1.178
63801.000			-4.711			-1.178
63900.000			-4.710			-1.178
64000.000			-4.711			-1.178
64101.000			-4.710			-1.178
64200.000			-4.710			-1.178
64301.000			-4.710			-1.177
64402.000			-4.710			-1.177
64501.000			-4.710			-1.177
64600.000			-4.709			-1.177
64701.000			-4.710			-1.177
64800.000			-4.710			-1.178
64900.000			-4.709			-1.177
65001.000			-4.709			-1.177
65101.000			-4.708			-1.177
65202.000			-4.708			-1.177
65301.000			-4.710			-1.177
65400.000			-4.709			-1.177
65501.000			-4.707			-1.177
65600.000			-4.708			-1.177
65700.000			-4.708			-1.177
65801.000			-4.706			-1.177
65901.000			-4.706			-1.176
66001.000			-4.706			-1.177
66102.000			-4.706			-1.176
66200.000			-4.706			-1.177
66300.000			-4.707			-1.177
66401.000			-4.706			-1.177
66500.000			-4.705			-1.176
66600.000			-4.706			-1.176
66702.000			-4.706			-1.177
66801.000			-4.705			-1.176
66901.000			-4.705			-1.176
67001.000			-4.705			-1.176
67100.000			-4.705			-1.176
67200.000			-4.705			-1.176
67301.000			-4.705			-1.176
67400.000			-4.705			-1.176
67500.000			-4.704			-1.176
67602.000			-4.704			-1.176
67701.000			-4.705			-1.176
67800.000			-4.705			-1.176
67901.000			-4.703			-1.176
68000.000			-4.703			-1.176
68100.000			-4.704			-1.176
68201.000			-4.703			-1.176
68300.000			-4.702			-1.176
68402.000			-4.703			-1.176
68501.000			-4.703			-1.176
68600.000			-4.703			-1.176
68701.000			-4.703			-1.176
68800.000			-4.702			-1.176
68900.000			-4.702			-1.175
69001.000			-4.702			-1.175
69100.000			-4.701			-1.175
69201.000			-4.700			-1.175
69302.000			-4.700			-1.175
69400.000			-4.701			-1.175
69500.000			-4.701			-1.175
69601.000			-4.700			-1.175
69700.000			-4.701			-1.175
69800.000			-4.702			-1.175
69901.000			-4.700			-1.175
70001.000			-4.700			-1.175
70101.000			-4.700			-1.175
70201.000			-4.701			-1.175
70300.000			-4.700			-1.175
70400.000			-4.700			-1.175
70501.000			-4.701			-1.175
70600.000			-4.699			-1.175
70700.000			-4.699			-1.175
70802.000			-4.700			-1.175
70901.000			-4.699			-1.175
71000.000			-4.698			-1.175
71101.000			-4.698			-1.175
71200.000			-4.698			-1.174
71300.000			-4.698			-1.174
71401.000			-4.698			-1.174
71500.000			-4.698			-1.174
71602.000			-4.697			-1.174
71701.000			-4.697			-1.174
71800.000			-4.697			-1.174
71901.000			-4.697			-1.174
72000.000			-4.697			-1.174
72100.000			-4.697			-1.174
72201.000			-4.696			-1.174
72300.000			-4.697			-1.174
72401.000			-4.697			-1.174
72502.000			-4.696			-1.174
72600.000			-4.696			-1.174
72700.000			-4.696			-1.174
72801.000			-4.696			-1.174
72900.000			-4.695			-1.174
73000.000			-4.695			-1.174
73101.000			-4.694			-1.174
73201.000			-4.694			-1.173
73301.000			-4.694			-1.174
73402.000			-4.695			-1.174
73500.000			-4.695			-1.174
73600.000			-4.694			-1.174
73701.000			-4.694			-1.173
73800.000			-4.694			-1.174
73900.000			-4.694			-1.173
74001.000			-4.694			-1.173
74101.000			-4.693			-1.173
74201.000			-4.693			-1.173
74301.000			-4.693			-1.173
74400.000			-4.694			-1.173
74500.000			-4.693			-1.173
74601.000			-4.692			-1.173
74700.000			-4.693			-1.173
74800.000			-4.694			-1.173
74902.000			-4.692			-1.173
75001.000			-4.691			-1.173
75101.000			-4.692			-1.173
75200.000			-4.691			-1.173
75300.000			-4.690			-1.172
75401.000			-4.690			-1.173
75500.000			-4.691			-1.173
75600.000			-4.691			-1.173
75702.000			-4.690			-1.172
75801.000			-4.690			-1.172
75901.000			-4.690			-1.173
76001.000			-4.689			-1.172
76100.000			-4.690			-1.172
76200.000			-4.690			-1.173
76301.000			-4.690			-1.173
76400.000			-4.691			-1.173
76500.000			-4.690			-1.172
76602.000			-4.689			-1.172
76701.000			-4.689			-1.172
76800.000			-4.690			-1.172
76901.000			-4.691			-1.173
77000.000			-4.689			-1.172
77100.000			-4.689			-1.172
77201.000			-4.688			-1.172
77300.000			-4.689			-1.172
77401.000			-4.689			-1.172
77502.000			-4.689			-1.172
77600.000			-4.688			-1.172
77700.000			-4.688			-1.172
77801.000			-4.688			-1.172
77900.000			-4.688			-1.172
78000.000			-4.688			-1.172
78100.000			-4.686			-1.172
78200.000			-4.686			-1.171
78302.000			-4.686			-1.172
78401.000			-4.686			-1.172
78500.000			-4.687			-1.172
78601.000			-4.686			-1.172
78700.000			-4.686			-1.171
78800.000			-4.686			-1.171
78901.000			-4.686			-1.171
79000.000			-4.686			-1.172
79101.000			-4.686			-1.172
79202.000			-4.687			-1.172
79300.000			-4.686			-1.172
79400.000			-4.685			-1.171
79501.000			-4.685			-1.171
79600.000			-4.685			-1.171
79700.000			-4.684			-1.171
79801.000			-4.684			-1.171
79900.000			-4.685			-1.171
80001.000			-4.686			-1.171
80102.000			-4.685			-1.171
80200.000			-4.685			-1.171
80300.000			-4.684			-1.171
80401.000			-4.684			-1.171
80500.000			-4.682			-1.171
80600.000			-4.682			-1.171
80701.000			-4.682			-1.171
80801.000			-4.683			-1.171
80901.000			-4.683			-1.171
81001.000			-4.683			-1.171
81100.000			-4.684			-1.171
81200.000			-4.682			-1.171
81300.000			-4.682			-1.171
81400.000			-4.682			-1.171
81501.000			-4.682			-1.171
81601.000			-4.683			-1.171
81701.000			-4.681			-1.170
81801.000			-4.681			-1.170
81900.000			-4.681			-1.170
82000.000			-4.681			-1.170
82101.000			-4.681			-1.170
82200.000			-4.681			-1.170
82300.000			-4.681			-1.170
82402.000			-4.682			-1.170
82501.000			-4.681			-1.170
82600.000			-4.681			-1.170
82701.000			-4.680			-1.170
82800.000			-4.681			-1.170
82900.000			-4.681			-1.170
83001.000			-4.680			-1.170
83100.000			-4.681			-1.170
83201.000			-4.680			-1.170
83302.000			-4.679			-1.170
83400.000			-4.680			-1.170
83500.000			-4.680			-1.170
83601.000			-4.680			-1.170
83700.000			-4.680			-1.170
83800.000			-4.679			-1.170
83901.000			-4.679			-1.170
84001.000			-4.679			-1.170
84101.000			-4.679			-1.170
84201.000			-4.678			-1.169
84300.000			-4.678			-1.170
84400.000			-4.678			-1.170
84500.000			-4.678			-1.170
84600.000			-4.678			-1.169
84701.000			-4.678			-1.169
84800.000			-4.678			-1.169
84901.000			-4.678			-1.169
85002.000			-4.678			-1.169
85100.000			-4.678			-1.169
85200.000			-4.678			-1.169
85301.000			-4.678			-1.169
85400.000			-4.678			-1.169
85500.000			-4.675			-1.169
85601.000			-4.676			-1.169
85701.000			-4.678			-1.169
85801.000			-4.677			-1.169
85901.000			-4.676			-1.169
86000.000			-4.676			-1.169
86100.000			-4.675			-1.169
86201.000			-4.676			-1.169
86300.000			-4.677			-1.169
86400.000			-4.676			-1.169
86501.000			-4.676			-1.169
86601.000			-4.676			-1.169
86701.000			-4.675			-1.169
86801.000			-4.674			-1.169
86900.000			-4.675			-1.169
87000.000			-4.675			-1.169
87101.000			-4.675			-1.169
87200.000			-4.675			-1.169
87300.000			-4.674			-1.169
87402.000			-4.674			-1.168
87501.000			-4.675			-1.169
87600.000			-4.675			-1.169
87700.000			-4.675			-1.169
87800.000			-4.674			-1.169
87901.000			-4.674			-1.168
88000.000			-4.674			-1.168
88100.000			-4.673			-1.168
88202.000			-4.674			-1.168
88301.000			-4.674			-1.168
88401.000			-4.673			-1.168
88501.000			-4.673			-1.168
88600.000			-4.673			-1.168
88700.000			-4.674			-1.168
88801.000			-4.674			-1.168
88900.000			-4.674			-1.168
89000.000			-4.672			-1.168
89102.000			-4.672			-1.168
89201.000			-4.672			-1.168
89300.000			-4.672			-1.168
89401.000			-4.672			-1.168
89500.000			-4.671			-1.168
89600.000			-4.671			-1.168
89701.000			-4.672			-1.168
89800.000			-4.672			-1.168
89901.000			-4.673			-1.168
90002.000			-4.671			-1.168
90100.000			-4.671			-1.168
90200.000			-4.671			-1.168
90301.000			-4.671			-1.168
90400.000			-4.671			-1.168
90500.000			-4.671			-1.168
90601.000			-4.671			-1.168
90701.000			-4.671			-1.168
90802.000			-4.671			-1.168
90900.000			-4.670			-1.167
91000.000			-4.671			-1.168
91101.000			-4.671			-1.168
91200.000			-4.669			-1.167
91300.000			-4.670			-1.168
91401.000			-4.670			-1.167
91501.000			-4.670			-1.167
91601.000			-4.669			-1.167
91702.000			-4.669			-1.167
91800.000			-4.669			-1.167
91900.000			-4.668			-1.167
92001.000			-4.669			-1.167
92100.000			-4.669			-1.167
92200.000			-4.669			-1.167
92301.000			-4.669			-1.167
92401.000			-4.668			-1.167
92501.000			-4.668			-1.167
92601.000			-4.667			-1.167
92700.000			-4.668			-1.167
92800.000			-4.667			-1.167
92901.000			-4.668			-1.167
93000.000			-4.668			-1.167
93100.000			-4.667			-1.167
93202.000			-4.667			-1.167
93301.000			-4.667			-1.167
93400.000			-4.668			-1.167
93501.000			-4.667			-1.167
93600.000			-4.666			-1.167
93700.000			-4.667			-1.167
93801.000			-4.667			-1.167
93900.000			-4.667			-1.167
94002.000			-4.666			-1.167
94101.000			-4.664			-1.166
94200.000			-4.666			-1.166
94301.000			-4.666			-1.167
94400.000			-4.666			-1.166
94500.000			-4.665			-1.166
94601.000			-4.665			-1.166
94700.000			-4.664			-1.166
94800.000			-4.665			-1.166
94902.000			-4.666			-1.167
95001.000			-4.665			-1.166
95100.000			-4.665			-1.166
95201.000			-4.665			-1.166
95300.000			-4.664			-1.166
95400.000			-4.665			-1.166
95501.000			-4.664			-1.166
95600.000			-4.664			-1.166
95701.000			-4.663			-1.166
95802.000			-4.663			-1.166
95900.000			-4.663			-1.166
96000.000			-4.663			-1.166
96101.000			-4.662			-1.166
96200.000			-4.663			-1.166
96300.000			-4.663			-1.166
96401.000			-4.663			-1.166
96501.000			-4.663			-1.166
96601.000			-4.663			-1.166
96701.000			-4.663			-1.166
96800.000			-4.663			-1.166
96900.000			-4.662			-1.166
97001.000			-4.662			-1.165
97100.000			-4.662			-1.165
97200.000			-4.662			-1.166
97302.000			-4.662			-1.165
97401.000			-4.662			-1.165
97501.000			-4.662			-1.165
97600.000			-4.662			-1.166
97700.000			-4.661			-1.165
97801.000			-4.661			-1.165
97900.000			-4.661			-1.165
98000.000			-4.660			-1.165
98102.000			-4.660			-1.165
98201.000			-4.660			-1.165
98301.000			-4.660			-1.165
98401.000			-4.660			-1.165
98500.000			-4.660			-1.165
98600.000			-4.660			-1.165
98701.000			-4.659			-1.165
98800.000			-4.659			-1.165
98900.000			-4.660			-1.165
99002.000			-4.660			-1.165
99101.000			-4.659			-1.165
99200.000			-4.659			-1.165
99301.000			-4.660			-1.165
99400.000			-4.660			-1.165
99500.000			-4.660			-1.165
99601.000			-4.660			-1.165
99700.000			-4.659			-1.165
99801.000			-4.659			-1.165
99902.000			-4.659			-1.165
100001.000			-4.658			-1.164
100100.000			-4.658			-1.165
100201.000			-4.659			-1.165
100300.000			-4.659			-1.165
100400.000			-4.658			-1.164
100500.000			-4.658			-1.164
100600.000			-4.658			-1.164
100702.000			-4.657			-1.164
100801.000			-4.657			-1.164
100900.000			-4.657			-1.164
101001.000			-4.657			-1.164
101100.000			-4.657			-1.164
101200.000			-4.656			-1.164
101301.000			-4.656			-1.164
101400.000			-4.656			-1.164
101501.000			-4.657			-1.164
101602.000			-4.657			-1.164
101700.000			-4.656			-1.164
101800.000			-4.657			-1.164
101901.000			-4.657			-1.164
102000.000			-4.656			-1.164
102100.000			-4.656			-1.164
102201.000			-4.656			-1.164
102301.000			-4.656			-1.164
102401.000			-4.656			-1.164
102501.000			-4.655			-1.164
102600.000			-4.655			-1.164
102700.000			-4.656			-1.164
102801.000			-4.655			-1.164
102900.000			-4.655			-1.164
103000.000			-4.655			-1.164
103102.000			-4.656			-1.164
103201.000			-4.655			-1.164
103300.000			-4.655			-1.164
103401.000			-4.654			-1.164
103500.000			-4.655			-1.164
103600.000			-4.654			-1.164
103700.000			-4.655			-1.164
103800.000			-4.655			-1.164
103901.000			-4.654			-1.164
104001.000			-4.654			-1.164
104101.000			-4.654			-1.163
104201.000			-4.653			-1.163
104300.000			-4.654			-1.163
104400.000			-4.653			-1.163
104501.000			-4.653			-1.163
104600.000			-4.653			-1.163
104700.000			-4.652			-1.163
104802.000			-4.652			-1.163
104901.000			-4.653			-1.163
105000.000			-4.652			-1.163
105101.000			-4.653			-1.163
105200.000			-4.653			-1.163
105300.000			-4.653			-1.163
105401.000			-4.652			-1.163
105500.000			-4.651			-1.163
105601.000			-4.651			-1.163
105702.000			-4.652			-1.163
105800.000			-4.652			-1.163
105900.000			-4.652			-1.163
106001.000			-4.651			-1.163
106100.000			-4.651			-1.163
106200.000			-4.651			-1.163
106301.000			-4.651			-1.163
106401.000			-4.652			-1.163
106501.000			-4.652			-1.163
106602.000			-4.652			-1.163
106700.000			-4.651			-1.163
106800.000			-4.651			-1.163
106900.000			-4.651			-1.163
107000.000			-4.651			-1.163
107101.000			-4.649			-1.162
107200.000			-4.649			-1.162
107301.000			-4.651			-1.163
107402.000			-4.651			-1.163
107500.000			-4.650			-1.163
107600.000			-4.650			-1.163
107701.000			-4.649			-1.162
107800.000			-4.650			-1.162
107900.000			-4.649			-1.162
108001.000			-4.649			-1.162
108101.000			-4.648			-1.162
108201.000			-4.647			-1.162
108301.000			-4.648			-1.162
108400.000			-4.648			-1.162
108500.000			-4.648			-1.162
108601.000			-4.649			-1.162
108700.000			-4.648			-1.162
108800.000			-4.647			-1.162
108901.000			-4.648			-1.162
109001.000			-4.648			-1.162
109101.000			-4.648			-1.162
109201.000			-4.647			-1.162
109300.000			-4.648			-1.162
109400.000			-4.648			-1.162
109501.000			-4.648			-1.162
109600.000			-4.648			-1.162
109700.000			-4.647			-1.162
109802.000			-4.646			-1.162
109901.000			-4.647			-1.162
110002.000			-4.647			-1.162
110100.000			-4.646			-1.162
110200.000			-4.646			-1.161
110301.000			-4.646			-1.162
110400.000			-4.647			-1.162
110500.000			-4.646			-1.162
110601.000			-4.646			-1.162
110701.000			-4.645			-1.161
110801.000			-4.647			-1.162
110901.000			-4.647			-1.162
111000.000			-4.647			-1.162
111100.000			-4.646			-1.162
111201.000			-4.647			-1.162
111300.000			-4.646			-1.161
111400.000			-4.646			-1.161
111502.000			-4.644			-1.161
111601.000			-4.645			-1.161
111700.000			-4.646			-1.161
111801.000			-4.645			-1.161
111900.000			-4.645			-1.161
112000.000			-4.645			-1.161
112101.000			-4.644			-1.161
112200.000			-4.645			-1.161
112301.000			-4.645			-1.161
112402.000			-4.644			-1.161
112501.000			-4.644			-1.161
112600.000			-4.644			-1.161
112701.000			-4.644			-1.161
112800.000			-4.644			-1.161
112900.000			-4.643			-1.161
113001.000			-4.643			-1.161
113100.000			-4.644			-1.161
113202.000			-4.643			-1.161
113301.000			-4.642			-1.161
113400.000			-4.642			-1.161
113501.000			-4.643			-1.161
113600.000			-4.644			-1.161
113700.000			-4.643			-1.161
113801.000			-4.644			-1.161
113900.000			-4.644			-1.161
114001.000			-4.643			-1.161
114102.000			-4.642			-1.160
114200.000			-4.642			-1.161
114300.000			-4.642			-1.160
114401.000			-4.641			-1.160
114500.000			-4.641			-1.160
114600.000			-4.642			-1.160
114701.000			-4.642			-1.160
114801.000			-4.641			-1.160
114901.000			-4.641			-1.160
115001.000			-4.641			-1.160
115100.000			-4.641			-1.160
115200.000			-4.641			-1.160
115301.000			-4.642			-1.160
115400.000			-4.641			-1.160
115500.000			-4.641			-1.160
115602.000			-4.640			-1.160
115701.000			-4.640			-1.160
115800.000			-4.641			-1.160
115901.000			-4.641			-1.160
116000.000			-4.640			-1.160
116100.000			-4.641			-1.160
116201.000			-4.641			-1.160
116300.000			-4.640			-1.160
116402.000			-4.640			-1.160
116501.000			-4.639			-1.160
116600.000			-4.639			-1.160
116701.000			-4.640			-1.160
116800.000			-4.639			-1.160
116900.000			-4.639			-1.160
117001.000			-4.639			-1.160
117100.000			-4.639			-1.160
117200.000			-4.640			-1.160
117302.000			-4.640			-1.160
117401.000			-4.639			-1.160
117500.000			-4.638			-1.159
117601.000			-4.639			-1.160
117700.000			-4.639			-1.160
117800.000			-4.639			-1.160
117901.000			-4.638			-1.160
118000.000			-4.638			-1.159
118101.000			-4.638			-1.160
118202.000			-4.637			-1.159
118301.000			-4.638			-1.159
118400.000			-4.638			-1.160
118501.000			-4.637			-1.159
118600.000			-4.637			-1.159
118700.000			-4.638			-1.159
118801.000			-4.637			-1.159
118900.000			-4.638			-1.159
119001.000			-4.638			-1.159
119102.000			-4.638			-1.159
119200.000			-4.637			-1.159
119300.000			-4.638			-1.159
119401.000			-4.637			-1.159
119500.000			-4.637			-1.159
119600.000			-4.637			-1.159
119700.000			-4.637			-1.159
119800.000			-4.637			-1.159
119902.000			-4.637			-1.159
120001.000			-4.637			-1.159
120100.000			-4.636			-1.159
120201.000			-4.635			-1.159
120300.000			-4.636			-1.159
120400.000			-4.635			-1.159
120501.000			-4.635			-1.159
120600.000			-4.636			-1.159
120701.000			-4.636			-1.159
120802.000			-4.635			-1.159
120900.000			-4.635			-1.159
121000.000			-4.635			-1.159
121101.000			-4.635			-1.159
121200.000			-4.634			-1.159
121300.000			-4.634			-1.159
121401.000			-4.635			-1.159
121501.000			-4.635			-1.159
121601.000			-4.635			-1.159
121701.000			-4.634			-1.159
121800.000			-4.634			-1.158
121900.000			-4.635			-1.159
122001.000			-4.635			-1.159
122100.000			-4.634			-1.159
122200.000			-4.634			-1.159
122302.000			-4.636			-1.159
122401.000			-4.634			-1.159
122500.000			-4.633			-1.158
122601.000			-4.633			-1.158
122700.000			-4.634			-1.159
122800.000			-4.634			-1.159
122900.000			-4.634			-1.158
123000.000			-4.634			-1.158
123101.000			-4.633			-1.158
123201.000			-4.633			-1.158
123301.000			-4.633			-1.158
123401.000			-4.633			-1.158
123500.000			-4.633			-1.158
123600.000			-4.632			-1.158
123701.000			-4.632			-1.158
123800.000			-4.632			-1.158
123900.000			-4.632			-1.158
124002.000			-4.632			-1.158
124101.000			-4.633			-1.158
124200.000			-4.632			-1.158
124301.000			-4.632			-1.158
124400.000			-4.633			-1.158
124500.000			-4.632			-1.158
124601.000			-4.632			-1.158
124700.000			-4.631			-1.158
124801.000			-4.632			-1.158
124902.000			-4.632			-1.158
125000.000			-4.632			-1.158
125100.000			-4.632			-1.158
125201.000			-4.631			-1.158
125300.000			-4.632			-1.158
125400.000			-4.632			-1.158
125501.000			-4.631			-1.158
125601.000			-4.631			-1.158
125701.000			-4.631			-1.158
125801.000			-4.630			-1.158
125900.000			-4.630			-1.158
126000.000			-4.631			-1.158
126100.000			-4.632			-1.158
126200.000			-4.631			-1.158
126301.000			-4.631			-1.158
126401.000			-4.630			-1.158
126501.000			-4.630			-1.158
126601.000			-4.630			-1.157
126700.000			-4.630			-1.157
126800.000			-4.630			-1.157
126901.000			-4.629			-1.157
127000.000			-4.630			-1.157
127100.000			-4.630			-1.157
127201.000			-4.630			-1.157
127301.000			-4.629			-1.157
127401.000			-4.630			-1.157
127501.000			-4.629			-1.157
127600.000			-4.629			-1.157
127700.000			-4.629			-1.157
127801.000			-4.629			-1.157
127900.000			-4.629			-1.157
128000.000			-4.629			-1.157
128101.000			-4.629			-1.157
128201.000			-4.629			-1.157
128301.000			-4.628			-1.157
128401.000			-4.628			-1.157
128500.000			-4.628			-1.157
128600.000			-4.628			-1.157
128701.000			-4.629			-1.157
128800.000			-4.629			-1.157
128900.000			-4.628			-1.157
129002.000			-4.629			-1.157
129101.000			-4.629			-1.157
129202.000			-4.628			-1.157
129300.000			-4.627			-1.157
129400.000			-4.628			-1.157
129501.000			-4.629			-1.157
129600.000			-4.627			-1.157
129700.000			-4.628			-1.157
129801.000			-4.628			-1.157
129901.000			-4.628			-1.157
130001.000			-4.627			-1.157
130101.000			-4.626			-1.157
130200.000			-4.626			-1.157
130300.000			-4.627			-1.157
130401.000			-4.627			-1.157
130500.000			-4.626			-1.157
130600.000			-4.627			-1.157
130702.000			-4.627			-1.157
130801.000			-4.627			-1.157
130900.000			-4.627			-1.157
131001.000			-4.626			-1.157
131100.000			-4.627			-1.157
131200.000			-4.626			-1.157
131301.000			-4.626			-1.156
131400.000			-4.627			-1.157
131501.000			-4.627			-1.157
131602.000			-4.626			-1.157
131701.000			-4.625			-1.156
131800.000			-4.625			-1.156
131901.000			-4.625			-1.156
132000.000			-4.625			-1.156
132100.000			-4.625			-1.156
132201.000			-4.625			-1.156
132300.000			-4.624			-1.156
132402.000			-4.623			-1.156
132501.000			-4.625			-1.156
132601.000			-4.625			-1.156
132701.000			-4.624			-1.156
132800.000			-4.623			-1.156
132900.000			-4.624			-1.156
133001.000			-4.623			-1.156
133100.000			-4.623			-1.156
133200.000			-4.623			-1.156
133302.000			-4.624			-1.156
133401.000			-4.624			-1.156
133501.000			-4.624			-1.156
133601.000			-4.624			-1.156
133700.000			-4.624			-1.156
133800.000			-4.623			-1.156
133901.000			-4.624			-1.156
134000.000			-4.624			-1.156
134100.000			-4.623			-1.156
134202.000			-4.623			-1.156
134301.000			-4.623			-1.156
134401.000			-4.623			-1.156
134501.000			-4.623			-1.156
134600.000			-4.622			-1.156
134700.000			-4.622			-1.156
134801.000			-4.622			-1.156
134900.000			-4.623			-1.156
135000.000			-4.622			-1.156
135102.000			-4.622			-1.155
135201.000			-4.622			-1.156
135300.000			-4.623			-1.156
135401.000			-4.621			-1.155
135500.000			-4.621			-1.155
135600.000			-4.623			-1.156
135700.000			-4.623			-1.156
135800.000			-4.622			-1.156
135901.000			-4.622			-1.155
136001.000			-4.621			-1.155
136101.000			-4.622			-1.155
136201.000			-4.621			-1.155
136300.000			-4.621			-1.155
136400.000			-4.620			-1.155
136501.000			-4.621			-1.155
136600.000			-4.620			-1.155
136700.000			-4.621			-1.155
136801.000			-4.621			-1.155
136901.000			-4.621			-1.155
137001.000			-4.621			-1.155
137101.000			-4.620			-1.155
137200.000			-4.619			-1.155
137300.000			-4.620			-1.155
137401.000			-4.620			-1.155
137500.000			-4.621			-1.155
137600.000			-4.620			-1.155
137701.000			-4.621			-1.155
137801.000			-4.620			-1.155
137901.000			-4.620			-1.155
138001.000			-4.619			-1.155
138100.000			-4.619			-1.155
138200.000			-4.619			-1.155
138301.000			-4.619			-1.155
138400.000			-4.619			-1.155
138500.000			-4.619			-1.155
138601.000			-4.619			-1.155
138701.000			-4.619			-1.155
138802.000			-4.619			-1.155
138901.000			-4.619			-1.155
139000.000			-4.619			-1.155
139101.000			-4.619			-1.155
139200.000			-4.619			-1.155
139300.000			-4.619			-1.155
139401.000			-4.619			-1.155
139500.000			-4.619			-1.155
139600.000			-4.619			-1.155
139702.000			-4.619			-1.155
139801.000			-4.619			-1.155
139900.000			-4.619			-1.155
140001.000			-4.619			-1.155
140100.000			-4.619			-1.155
140200.000			-4.619			-1.155
140301.000			-4.619			-1.155
140400.000			-4.618			-1.155
140500.000			-4.619			-1.155
140602.000			-4.618			-1.154
140701.000			-4.617			-1.154
140801.000			-4.617			-1.154
140901.000			-4.617			-1.154
141000.000			-4.617			-1.154
141100.000			-4.618			-1.154
141201.000			-4.617			-1.154
141300.000			-4.617			-1.154
141400.000			-4.616			-1.154
141502.000			-4.617			-1.154
141601.000			-4.617			-1.154
141701.000			-4.617			-1.154
141801.000			-4.617			-1.154
141900.000			-4.617			-1.154
142000.000			-4.616			-1.154
142100.000			-4.617			-1.154
142200.000			-4.616			-1.154
142301.000			-4.616			-1.154
142401.000			-4.616			-1.154
142501.000			-4.616			-1.154
142602.000			-4.616			-1.154
142700.000			-4.616			-1.154
142800.000			-4.615			-1.154
142901.000			-4.616			-1.154
143000.000			-4.616			-1.154
143100.000			-4.615			-1.154
143201.000			-4.616			-1.154
143301.000			-4.617			-1.154
143401.000			-4.617			-1.154
143502.000			-4.615			-1.154
143600.000			-4.615			-1.154
143700.000			-4.615			-1.154
143801.000			-4.615			-1.154
143900.000			-4.615			-1.154
144000.000			-4.614			-1.154
144101.000			-4.615			-1.154
144200.000			-4.614			-1.154
144301.000			-4.614			-1.154
144402.000			-4.615			-1.154
144500.000			-4.615			-1.154
144600.000			-4.615			-1.154
144701.000			-4.615			-1.154
144800.000			-4.615			-1.154
144900.000			-4.614			-1.154
145001.000			-4.614			-1.153
145100.000			-4.614			-1.154
145202.000			-4.614			-1.153
145301.000			-4.614			-1.153
145400.000			-4.614			-1.154
145501.000			-4.614			-1.153
145600.000			-4.613			-1.153
145700.000			-4.614			-1.153
145801.000			-4.613			-1.153
145900.000			-4.613			-1.153
146000.000			-4.614			-1.154
146102.000			-4.613			-1.153
146201.000			-4.612			-1.153
146300.000			-4.612			-1.153
146401.000			-4.612			-1.153
146500.000			-4.612			-1.153
146600.000			-4.612			-1.153
146701.000			-4.612			-1.153
146800.000			-4.612			-1.153
146900.000			-4.612			-1.153
147002.000			-4.613			-1.153
147101.000			-4.612			-1.153
147200.000			-4.612			-1.153
147301.000			-4.612			-1.153
147400.000			-4.612			-1.153
147500.000			-4.611			-1.153
147601.000			-4.611			-1.153
147700.000			-4.612			-1.153
147800.000			-4.611			-1.153
147902.000			-4.611			-1.153
148001.000			-4.612			-1.153
148101.000			-4.612			-1.153
148201.000			-4.611			-1.153
148300.000			-4.612			-1.153
148400.000			-4.611			-1.153
148500.000			-4.610			-1.153
148600.000			-4.610			-1.152
148701.000			-4.611			-1.153
148801.000			-4.612			-1.153
148901.000			-4.610			-1.153
149002.000			-4.610			-1.152
149100.000			-4.611			-1.153
149200.000			-4.610			-1.152
149301.000			-4.609			-1.152
149400.000			-4.610			-1.152
149500.000			-4.610			-1.153
149601.000			-4.610			-1.153
149701.000			-4.610			-1.152
149801.000			-4.610			-1.152
149902.000			-4.611			-1.153
150000.000			-4.610			-1.152
150100.000			-4.609			-1.152
150201.000			-4.608			-1.152
150300.000			-4.610			-1.152
150400.000			-4.609			-1.152
150501.000			-4.608			-1.152
150600.000			-4.609			-1.152
150701.000			-4.610			-1.152
150802.000			-4.610			-1.152
150900.000			-4.610			-1.153
151000.000			-4.610			-1.153
151101.000			-4.610			-1.152
151200.000			-4.609			-1.152
151300.000			-4.609			-1.152
151401.000			-4.608			-1.152
151501.000			-4.608			-1.152
151602.000			-4.609			-1.152
151701.000			-4.609			-1.152
151800.000			-4.609			-1.152
151901.000			-4.607			-1.152
152000.000			-4.607			-1.152
152100.000			-4.608			-1.152
152201.000			-4.608			-1.152
152300.000			-4.607			-1.152
152400.000			-4.608			-1.152
152502.000			-4.608			-1.152
152601.000			-4.607			-1.152
152700.000			-4.607			-1.152
152801.000			-4.607			-1.152
152900.000			-4.607			-1.152
153000.000			-4.607			-1.152
153101.000			-4.607			-1.152
153200.000			-4.607			-1.152
153300.000			-4.608			-1.152
153402.000			-4.607			-1.152
153501.000			-4.607			-1.152
153600.000			-4.607			-1.152
153701.000			-4.607			-1.152
153800.000			-4.606			-1.152
153900.000			-4.606			-1.152
154001.000			-4.606			-1.151
154100.000			-4.606			-1.151
154200.000			-4.606			-1.151
154302.000			-4.606			-1.151
154401.000			-4.606			-1.152
154500.000			-4.607			-1.152
154601.000			-4.607			-1.152
154700.000			-4.607			-1.152
154800.000			-4.606			-1.152
154900.000			-4.607			-1.152
155000.000			-4.606			-1.152
155101.000			-4.606			-1.151
155201.000			-4.606			-1.151
155301.000			-4.606			-1.151
155402.000			-4.605			-1.151
155500.000			-4.606			-1.152
155600.000			-4.605			-1.151
155701.000			-4.605			-1.151
155800.000			-4.605			-1.151
155900.000			-4.604			-1.151
156001.000			-4.605			-1.151
156101.000			-4.605			-1.151
156201.000			-4.605			-1.151
156302.000			-4.605			-1.151
156400.000			-4.604			-1.151
156500.000			-4.605			-1.151
156601.000			-4.604			-1.151
156700.000			-4.604			-1.151
156800.000			-4.604			-1.151
156901.000			-4.604			-1.151
157000.000			-4.604			-1.151
157101.000			-4.604			-1.151
157202.000			-4.604			-1.151
157300.000			-4.604			-1.151
157400.000			-4.604			-1.151
157501.000			-4.604			-1.151
157600.000			-4.603			-1.151
157700.000			-4.603			-1.151
157801.000			-4.602			-1.151
157900.000			-4.603			-1.151
158002.000			-4.602			-1.151
158101.000			-4.603			-1.151
158200.000			-4.603			-1.151
158301.000			-4.603			-1.151
158400.000			-4.603			-1.151
158500.000			-4.602			-1.151
158601.000			-4.602			-1.151
158700.000			-4.602			-1.151
158800.000			-4.603			-1.151
158902.000			-4.602			-1.151
159001.000			-4.602			-1.150
159100.000			-4.602			-1.151
159201.000			-4.602			-1.151
159300.000			-4.602			-1.150
159400.000			-4.602			-1.150
159501.000			-4.602			-1.150
159600.000			-4.602			-1.150
159700.000			-4.602			-1.150
159802.000			-4.600			-1.150
159901.000			-4.600			-1.150
160001.000			-4.601			-1.150
160101.000			-4.602			-1.151
160200.000			-4.601			-1.150
160300.000			-4.601			-1.150
160401.000			-4.600			-1.150
160500.000			-4.600			-1.150
160600.000			-4.601			-1.150
160702.000			-4.602			-1.150
160801.000			-4.601			-1.150
160900.000			-4.601			-1.150
161001.000			-4.601			-1.150
161100.000			-4.600			-1.150
161200.000			-4.600			-1.150
161300.000			-4.601			-1.150
161400.000			-4.601			-1.150
161501.000			-4.601			-1.150
161601.000			-4.600			-1.150
161701.000			-4.599			-1.150
161801.000			-4.599			-1.150
161900.000			-4.599			-1.150
162000.000			-4.599			-1.150
162101.000			-4.600			-1.150
162200.000			-4.600			-1.150
162300.000			-4.600			-1.150
162401.000			-4.600			-1.150
162501.000			-4.600			-1.150
162601.000			-4.600			-1.150
162701.000			-4.599			-1.150
162800.000			-4.600			-1.150
162900.000			-4.598			-1.150
163001.000			-4.598			-1.150
163100.000			-4.600			-1.150
163200.000			-4.599			-1.150
163301.000			-4.598			-1.150
163401.000			-4.598			-1.149
163501.000			-4.599			-1.150
163602.000			-4.599			-1.150
163700.000			-4.599			-1.150
163800.000			-4.598			-1.150
163901.000			-4.598			-1.149
164000.000			-4.599			-1.150
164100.000			-4.599			-1.150
164201.000			-4.598			-1.150
164300.000			-4.598			-1.150
164402.000			-4.598			-1.149
164501.000			-4.597			-1.149
164601.000			-4.598			-1.149
164701.000			-4.597			-1.149
164800.000			-4.596			-1.149
164900.000			-4.597			-1.149
165001.000			-4.598			-1.149
165100.000			-4.597			-1.149
165200.000			-4.597			-1.149
165301.000			-4.597			-1.149
165401.000			-4.597			-1.149
165501.000			-4.597			-1.149
165601.000			-4.597			-1.149
165700.000			-4.597			-1.149
165800.000			-4.596			-1.149
165901.000			-4.597			-1.149
166000.000			-4.597			-1.149
166100.000			-4.595			-1.149
166201.000			-4.596			-1.149
166301.000			-4.596			-1.149
166401.000			-4.596			-1.149
166502.000			-4.596			-1.149
166600.000			-4.595			-1.149
166700.000			-4.595			-1.149
166801.000			-4.595			-1.149
166900.000			-4.596			-1.149
167000.000			-4.596			-1.149
167101.000			-4.596			-1.149
167200.000			-4.595			-1.149
167301.000			-4.595			-1.149
167402.000			-4.595			-1.149
167500.000			-4.595			-1.149
167600.000			-4.595			-1.149
167700.000			-4.594			-1.149
167800.000			-4.594			-1.149
167901.000			-4.595			-1.149
168000.000			-4.594			-1.149
168100.000			-4.594			-1.149
168202.000			-4.594			-1.148
168301.000			-4.594			-1.149
168401.000			-4.595			-1.149
168501.000			-4.595			-1.149
168600.000			-4.594			-1.149
168700.000			-4.595			-1.149
168801.000			-4.594			-1.148
168900.000			-4.593			-1.148
169000.000			-4.593			-1.148
169101.000			-4.593			-1.148
169201.000			-4.592			-1.148
169301.000			-4.593			-1.148
169402.000			-4.594			-1.148
169500.000			-4.594			-1.148
169600.000			-4.594			-1.148
169701.000			-4.594			-1.149
169800.000			-4.594			-1.148
169900.000			-4.593			-1.148
170001.000			-4.594			-1.148
170100.000			-4.594			-1.148
170201.000			-4.593			-1.148
170302.000			-4.593			-1.148
170400.000			-4.592			-1.148
170500.000			-4.593			-1.148
170601.000			-4.594			-1.148
170700.000			-4.593			-1.148
170800.000			-4.592			-1.148
170900.000			-4.593			-1.148
171000.000			-4.593			-1.148
171102.000			-4.592			-1.148
171201.000			-4.591			-1.148
171301.000			-4.592			-1.148
171401.000			-4.592			-1.148
171500.000			-4.592			-1.148
171600.000			-4.591			-1.148
171701.000			-4.592			-1.148
171800.000			-4.592			-1.148
171900.000			-4.592			-1.148
172002.000			-4.591			-1.148
172101.000			-4.591			-1.148
172201.000			-4.591			-1.148
172301.000			-4.592			-1.148
172400.000			-4.591			-1.148
172500.000			-4.591			-1.148
172601.000			-4.592			-1.148
172700.000			-4.591			-1.148
172800.000			-4.591			-1.148
172901.000			-4.591			-1.148
173001.000			-4.590			-1.148
173101.000			-4.590			-1.148
173201.000			-4.591			-1.148
173300.000			-4.591			-1.148
173400.000			-4.590			-1.148
173501.000			-4.591			-1.148
173600.000			-4.591			-1.148
173700.000			-4.591			-1.148
173801.000			-4.591			-1.148
173901.000			-4.590			-1.147
174002.000			-4.590			-1.147
174100.000			-4.591			-1.148
174200.000			-4.590			-1.148
174301.000			-4.589			-1.147
174400.000			-4.589			-1.147
174500.000			-4.590			-1.147
174601.000			-4.590			-1.147
174700.000			-4.590			-1.148
174801.000			-4.590			-1.148
174902.000			-4.590			-1.148
175001.000			-4.590			-1.147
175100.000			-4.590			-1.147
175201.000			-4.588			-1.147
175300.000			-4.588			-1.147
175400.000			-4.589			-1.147
175501.000			-4.589			-1.147
175600.000			-4.589			-1.147
175700.000			-4.588			-1.147
175802.000			-4.588			-1.147
175901.000			-4.588			-1.147
176001.000			-4.589			-1.147
176101.000			-4.589			-1.147
176200.000			-4.588			-1.147
176300.000			-4.588			-1.147
176401.000			-4.588			-1.147
176500.000			-4.588			-1.147
176600.000			-4.588			-1.147
176701.000			-4.589			-1.147
176801.000			-4.588			-1.147
176901.000			-4.587			-1.147
177001.000			-4.587			-1.147
177100.000			-4.588			-1.147
177200.000			-4.588			-1.147
177300.000			-4.588			-1.147
177400.000			-4.588			-1.147
177501.000			-4.587			-1.147
177600.000			-4.587			-1.147
177700.000			-4.586			-1.147
177802.000			-4.587			-1.147
177901.000			-4.587			-1.147
178000.000			-4.587			-1.147
178101.000			-4.588			-1.147
178200.000			-4.588			-1.147
178300.000			-4.587			-1.147
178401.000			-4.587			-1.147
178500.000			-4.587			-1.147
178600.000			-4.586			-1.147
178701.000			-4.586			-1.146
178801.000			-4.586			-1.147
178901.000			-4.586			-1.147
179001.000			-4.586			-1.147
179100.000			-4.587			-1.147
179200.000			-4.587			-1.147
179301.000			-4.587			-1.147
179400.000			-4.586			-1.147
179500.000			-4.586			-1.147
179601.000			-4.586			-1.147
179701.000			-4.586			-1.146
179801.000			-4.586			-1.146
179902.000			-4.587			-1.147
180000.000			-4.587			-1.147
180100.000			-4.585			-1.146
180201.000			-4.586			-1.146
180300.000			-4.586			-1.146
180400.000			-4.586			-1.147
180500.000			-4.585			-1.146
180600.000			-4.585			-1.146
180702.000			-4.585			-1.146
180801.000			-4.585			-1.146
180900.000			-4.586			-1.146
181001.000			-4.585			-1.146
181100.000			-4.585			-1.146
181200.000			-4.585			-1.146
181301.000			-4.585			-1.146
181400.000			-4.584			-1.146
181500.000			-4.585			-1.146
181602.000			-4.585			-1.146
181701.000			-4.585			-1.146
181801.000			-4.585			-1.146
181901.000			-4.585			-1.146
182000.000			-4.585			-1.146
182100.000			-4.585			-1.146
182201.000			-4.584			-1.146
182300.000			-4.584			-1.146
182400.000			-4.585			-1.146
182501.000			-4.585			-1.146
182601.000			-4.585			-1.146
182701.000			-4.585			-1.146
182801.000			-4.585			-1.146
182900.000			-4.585			-1.146
183000.000			-4.585			-1.146
183101.000			-4.585			-1.146
183200.000			-4.584			-1.146
183300.000			-4.585			-1.146
183401.000			-4.584			-1.146
183501.000			-4.584			-1.146
183602.000			-4.584			-1.146
183701.000			-4.584			-1.146
183800.000			-4.583			-1.146
183901.000			-4.583			-1.146
184000.000			-4.583			-1.146
184100.000			-4.582			-1.146
184201.000			-4.582			-1.146
184300.000			-4.584			-1.146
184400.000			-4.584			-1.146
184502.000			-4.583			-1.146
184601.000			-4.582			-1.146
184700.000			-4.583			-1.146
184801.000			-4.583			-1.146
184900.000			-4.584			-1.146
185000.000			-4.583			-1.146
185101.000			-4.582			-1.146
185200.000			-4.583			-1.146
185300.000			-4.582			-1.146
185402.000			-4.582			-1.146
185501.000			-4.582			-1.146
185601.000			-4.582			-1.145
185701.000			-4.582			-1.145
185800.000			-4.582			-1.145
185900.000			-4.581			-1.145
186001.000			-4.582			-1.145
186100.000			-4.583			-1.146
186200.000			-4.582			-1.145
186301.000			-4.582			-1.145
186401.000			-4.581			-1.145
186501.000			-4.582			-1.146
186601.000			-4.582			-1.146
186700.000			-4.581			-1.145
186800.000			-4.581			-1.145
186900.000			-4.581			-1.145
187000.000			-4.581			-1.145
187101.000			-4.581			-1.145
187200.000			-4.581			-1.145
187301.000			-4.580			-1.145
187402.000			-4.580			-1.145
187501.000			-4.581			-1.145
187600.000			-4.582			-1.145
187701.000			-4.581			-1.145
187800.000			-4.580			-1.145
187900.000			-4.580			-1.145
188001.000			-4.581			-1.145
188100.000			-4.580			-1.145
188200.000			-4.581			-1.145
188302.000			-4.580			-1.145
188401.000			-4.580			-1.145
188501.000			-4.581			-1.145
188601.000			-4.581			-1.145
188700.000			-4.580			-1.145
188800.000			-4.580			-1.145
188901.000			-4.580			-1.145
189000.000			-4.580			-1.145
189100.000			-4.580			-1.145
189201.000			-4.580			-1.145
189301.000			-4.580			-1.145
189401.000			-4.579			-1.145
189501.000			-4.579			-1.145
189600.000			-4.580			-1.145
189700.000			-4.581			-1.145
189801.000			-4.580			-1.145
189900.000			-4.579			-1.145
190000.000			-4.580			-1.145
190100.000			-4.579			-1.145
190200.000			-4.578			-1.145
190302.000			-4.579			-1.145
190401.000			-4.579			-1.145
190500.000			-4.579			-1.145
190601.000			-4.578			-1.144
190700.000			-4.579			-1.145
190800.000			-4.579			-1.145
190901.000			-4.578			-1.145
191000.000			-4.579			-1.145
191100.000			-4.579			-1.145
191202.000			-4.579			-1.145
191301.000			-4.580			-1.145
191401.000			-4.579			-1.145
191501.000			-4.578			-1.145
191600.000			-4.578			-1.145
191700.000			-4.577			-1.144
191801.000			-4.578			-1.144
191900.000			-4.578			-1.144
192000.000			-4.578			-1.144
192101.000			-4.577			-1.144
192201.000			-4.577			-1.144
192301.000			-4.578			-1.145
192402.000			-4.578			-1.145
192500.000			-4.579			-1.145
192600.000			-4.579			-1.145
192701.000			-4.579			-1.145
192800.000			-4.576			-1.144
192900.000			-4.577			-1.144
193001.000			-4.576			-1.144
193100.000			-4.576			-1.144
193202.000			-4.577			-1.144
193301.000			-4.578			-1.145
193400.000			-4.578			-1.144
193501.000			-4.576			-1.144
193600.000			-4.576			-1.144
193700.000			-4.577			-1.144
193801.000			-4.577			-1.144
193900.000			-4.577			-1.144
194000.000			-4.576			-1.144
194102.000			-4.577			-1.144
194201.000			-4.576			-1.144
194301.000			-4.576			-1.144
194401.000			-4.576			-1.144
194500.000			-4.575			-1.144
194600.000			-4.576			-1.144
194701.000			-4.577			-1.144
194800.000			-4.577			-1.144
194900.000			-4.578			-1.144
195001.000			-4.575			-1.144
195101.000			-4.575			-1.144
195201.000			-4.575			-1.144
195301.000			-4.576			-1.144
195400.000			-4.577			-1.144
195500.000			-4.577			-1.144
195601.000			-4.576			-1.144
195700.000			-4.575			-1.144
195800.000			-4.575			-1.144
195901.000			-4.574			-1.143
196001.000			-4.574			-1.143
196101.000			-4.575			-1.144
196202.000			-4.575			-1.144
196300.000			-4.575			-1.144
196400.000			-4.576			-1.144
196500.000			-4.576			-1.144
196600.000			-4.575			-1.144
196701.000			-4.575			-1.144
196800.000			-4.575			-1.144
196900.000			-4.574			-1.144
197002.000			-4.574			-1.144
197101.000			-4.575			-1.144
197201.000			-4.574			-1.143
197301.000			-4.573			-1.143
197400.000			-4.574			-1.143
197500.000			-4.574			-1.143
197601.000			-4.575			-1.144
197700.000			-4.575			-1.144
197800.000			-4.575			-1.144
197901.000			-4.574			-1.144
198001.000			-4.573			-1.143
198101.000			-4.573			-1.143
198201.000			-4.574			-1.143
198300.000			-4.574			-1.144
198400.000			-4.574			-1.143
198501.000			-4.574			-1.144
198600.000			-4.573			-1.143
198700.000			-4.573			-1.143
198801.000			-4.573			-1.143
198900.000			-4.574			-1.143
199001.000			-4.573			-1.143
199102.000			-4.574			-1.144
199200.000			-4.574			-1.143
199300.000			-4.573			-1.143
199401.000			-4.573			-1.143
199500.000			-4.572			-1.143
199600.000			-4.572			-1.143
199700.000			-4.573			-1.143
199800.000			-4.574			-1.143
199901.000			-4.573			-1.143
200001.000			-4.572			-1.143
200101.000			-4.573			-1.143
200201.000			-4.573			-1.143
200300.000			-4.573			-1.143
200400.000			-4.572			-1.143
200501.000			-4.572			-1.143
200600.000			-4.573			-1.143
200700.000			-4.573			-1.143
200802.000			-4.572			-1.143
200901.000			-4.573			-1.143
201001.000			-4.572			-1.143
201101.000			-4.571			-1.143
201200.000			-4.571			-1.143
201300.000			-4.572			-1.143
201401.000			-4.571			-1.143
201500.000			-4.572			-1.143
201600.000			-4.573			-1.143
201702.000			-4.572			-1.143
201801.000			-4.573			-1.143
201901.000			-4.572			-1.143
202001.000			-4.571			-1.143
202100.000			-4.572			-1.143
202200.000			-4.571			-1.143
202301.000			-4.571			-1.143
202400.000			-4.571			-1.143
202500.000			-4.571			-1.143
202602.000			-4.572			-1.143
202701.000			-4.571			-1.143
202800.000			-4.571			-1.143
202900.000			-4.572			-1.143
203000.000			-4.571			-1.143
203101.000			-4.571			-1.143
203200.000			-4.571			-1.143
203300.000			-4.571			-1.143
203401.000			-4.571			-1.143
203501.000			-4.571			-1.143
203601.000			-4.571			-1.143
203701.000			-4.570			-1.143
203800.000			-4.571			-1.143
203900.000			-4.570			-1.143
204001.000			-4.571			-1.143
204100.000			-4.572			-1.143
204200.000			-4.571			-1.143
204301.000			-4.571			-1.143
204401.000			-4.571			-1.143
204501.000			-4.570			-1.143
204601.000			-4.570			-1.142
204700.000			-4.570			-1.142
204800.000			-4.571			-1.143
204901.000			-4.570			-1.142
205000.000			-4.570			-1.143
205100.000			-4.569			-1.142
205201.000			-4.570			-1.143
205301.000			-4.570			-1.142
205401.000			-4.570			-1.142
205501.000			-4.570			-1.142
205600.000			-4.570			-1.143
205700.000			-4.570			-1.143
205801.000			-4.571			-1.143
205900.000			-4.570			-1.142
206000.000			-4.570			-1.143
206100.000			-4.570			-1.142
206201.000			-4.569			-1.142
206302.000			-4.569			-1.142
206401.000			-4.569			-1.142
206500.000			-4.570			-1.142
206601.000			-4.569			-1.142
206700.000			-4.569			-1.142
206800.000			-4.568			-1.142
206901.000			-4.569			-1.142
207000.000			-4.570			-1.143
207100.000			-4.571			-1.143
207202.000			-4.569			-1.142
207301.000			-4.568			-1.142
207400.000			-4.569			-1.142
207501.000			-4.569			-1.142
207600.000			-4.568			-1.142
207700.000			-4.569			-1.142
207801.000			-4.568			-1.142
207900.000			-4.567			-1.142
208000.000			-4.567			-1.142
208102.000			-4.567			-1.142
208201.000			-4.567			-1.142
208301.000			-4.567			-1.142
208401.000			-4.567			-1.142
208500.000			-4.567			-1.142
208600.000			-4.567			-1.142
208701.000			-4.568			-1.142
208800.000			-4.568			-1.142
208900.000			-4.568			-1.142
209002.000			-4.567			-1.142
209101.000			-4.567			-1.142
209202.000			-4.567			-1.142
209300.000			-4.567			-1.142
209400.000			-4.567			-1.142
209501.000			-4.567			-1.142
209600.000			-4.568			-1.142
209700.000			-4.568			-1.142
209801.000			-4.568			-1.142
209900.000			-4.568			-1.142
210001.000			-4.567			-1.142
210102.000			-4.566			-1.142
210200.000			-4.567			-1.142
210300.000			-4.567			-1.142
210401.000			-4.567			-1.142
210500.000			-4.567			-1.142
210600.000			-4.566			-1.142
210701.000			-4.566			-1.141
210800.000			-4.567			-1.142
210901.000			-4.568			-1.142
211002.000			-4.567			-1.142
211101.000			-4.566			-1.142
211200.000			-4.565			-1.141
211301.000			-4.565			-1.141
211400.000			-4.565			-1.141
211500.000			-4.566			-1.141
211601.000			-4.566			-1.141
211700.000			-4.565			-1.141
211801.000			-4.566			-1.141
211902.000			-4.566			-1.141
212001.000			-4.566			-1.142
212100.000			-4.567			-1.142
212201.000			-4.566			-1.141
212300.000			-4.565			-1.141
212400.000			-4.565			-1.141
212500.000			-4.565			-1.141
212600.000			-4.566			-1.141
212702.000			-4.567			-1.142
212801.000			-4.566			-1.141
212901.000			-4.565			-1.141
213001.000			-4.565			-1.141
213100.000			-4.565			-1.141
213200.000			-4.565			-1.141
213301.000			-4.565			-1.141
213400.000			-4.565			-1.141
213500.000			-4.566			-1.141
213602.000			-4.564			-1.141
213701.000			-4.564			-1.141
213801.000			-4.564			-1.141
213901.000			-4.565			-1.141
214000.000			-4.565			-1.141
214100.000			-4.564			-1.141
214201.000			-4.565			-1.141
214300.000			-4.565			-1.141
214400.000			-4.564			-1.141
214501.000			-4.565			-1.141
214601.000			-4.566			-1.141
214701.000			-4.565			-1.141
214801.000			-4.565			-1.141
214900.000			-4.565			-1.141
215000.000			-4.564			-1.141
215101.000			-4.564			-1.141
215200.000			-4.564			-1.141
215300.000			-4.565			-1.141
215401.000			-4.564			-1.141
215501.000			-4.563			-1.141
215602.000			-4.564			-1.141
215700.000			-4.564			-1.141
215800.000			-4.564			-1.141
215901.000			-4.564			-1.141
216000.000			-4.564			-1.141
216100.000			-4.564			-1.141
216201.000			-4.563			-1.141
216300.000			-4.563			-1.141
216401.000			-4.564			-1.141
216502.000			-4.564			-1.141
216600.000			-4.564			-1.141
216700.000			-4.563			-1.141
216801.000			-4.563			-1.141
216900.000			-4.563			-1.141
217000.000			-4.563			-1.141
217101.000			-4.563			-1.141
217200.000			-4.563			-1.141
217301.000			-4.563			-1.141
217402.000			-4.563			-1.141
217501.000			-4.562			-1.141
217600.000			-4.563			-1.141
217701.000			-4.563			-1.141
217800.000			-4.563			-1.141
217900.000			-4.563			-1.141
218001.000			-4.562			-1.141
218100.000			-4.563			-1.141
218201.000			-4.562			-1.141
218302.000			-4.563			-1.141
218401.000			-4.563			-1.141
218500.000			-4.563			-1.141
218601.000			-4.563			-1.141
218700.000			-4.562			-1.141
218800.000			-4.562			-1.140
218900.000			-4.563			-1.141
219000.000			-4.563			-1.141
219102.000			-4.563			-1.141
219201.000			-4.562			-1.140
219301.000			-4.562			-1.140
219401.000			-4.562			-1.140
219500.000			-4.562			-1.140
219600.000			-4.562			-1.141
219701.000			-4.561			-1.140
219800.000			-4.561			-1.140
219900.000			-4.561			-1.140
220001.000			-4.560			-1.140
220101.000			-4.561			-1.140
220201.000			-4.562			-1.140
220301.000			-4.561			-1.140
220400.000			-4.561			-1.140
220500.000			-4.561			-1.140
220601.000			-4.561			-1.140
220700.000			-4.560			-1.140
220800.000			-4.560			-1.140
220901.000			-4.560			-1.140
221001.000			-4.561			-1.140
221101.000			-4.561			-1.140
221201.000			-4.562			-1.140
221300.000			-4.561			-1.140
221400.000			-4.560			-1.140
221501.000			-4.560			-1.140
221600.000			-4.560			-1.140
221700.000			-4.560			-1.140
221801.000			-4.560			-1.140
221901.000			-4.559			-1.140
222002.000			-4.560			-1.140
222100.000			-4.559			-1.140
222200.000			-4.559			-1.140
222301.000			-4.560			-1.140
222400.000			-4.561			-1.140
222500.000			-4.559			-1.140
222601.000			-4.560			-1.140
222700.000			-4.560			-1.140
222801.000			-4.559			-1.140
222902.000			-4.558			-1.139
223000.000			-4.559			-1.140
223100.000			-4.560			-1.140
223201.000			-4.560			-1.140
223300.000			-4.559			-1.140
223400.000			-4.558			-1.140
223501.000			-4.559			-1.140
223600.000			-4.559			-1.140
223701.000			-4.559			-1.140
223802.000			-4.559			-1.140
223901.000			-4.559			-1.140
224000.000			-4.559			-1.140
224101.000			-4.559			-1.140
224200.000			-4.559			-1.140
224300.000			-4.559			-1.140
224401.000			-4.559			-1.140
224500.000			-4.558			-1.140
224601.000			-4.558			-1.139
224702.000			-4.558			-1.140
224801.000			-4.558			-1.140
224900.000			-4.559			-1.140
225001.000			-4.559			-1.140
225100.000			-4.559			-1.140
225200.000			-4.558			-1.140
225300.000			-4.557			-1.139
225400.000			-4.558			-1.140
225501.000			-4.559			-1.140
225601.000			-4.559			-1.140
225701.000			-4.559			-1.140
225801.000			-4.558			-1.140
225900.000			-4.557			-1.139
226000.000			-4.557			-1.139
226101.000			-4.557			-1.139
226200.000			-4.557			-1.139
226300.000			-4.558			-1.139
226401.000			-4.558			-1.139
226501.000			-4.558			-1.139
226601.000			-4.558			-1.140
226701.000			-4.557			-1.139
226800.000			-4.557			-1.139
226900.000			-4.556			-1.139
227001.000			-4.556			-1.139
227100.000			-4.557			-1.139
227200.000			-4.557			-1.139
227301.000			-4.556			-1.139
227401.000			-4.557			-1.139
227501.000			-4.558			-1.140
227602.000			-4.557			-1.139
227700.000			-4.557			-1.139
227800.000			-4.556			-1.139
227901.000			-4.556			-1.139
228000.000			-4.557			-1.139
228100.000			-4.557			-1.139
228201.000			-4.556			-1.139
228300.000			-4.556			-1.139
228402.000			-4.556			-1.139
228501.000			-4.556			-1.139
228601.000			-4.555			-1.139
228701.000			-4.555			-1.139
228800.000			-4.555			-1.139
228900.000			-4.556			-1.139
229001.000			-4.556			-1.139
229100.000			-4.557			-1.139
229200.000			-4.557			-1.139
229301.000			-4.556			-1.139
229401.000			-4.555			-1.139
229501.000			-4.555			-1.139
229601.000			-4.554			-1.139
229700.000			-4.556			-1.139
229800.000			-4.555			-1.139
229901.000			-4.555			-1.139
230000.000			-4.555			-1.139
230100.000			-4.554			-1.139
230201.000			-4.554			-1.139
230301.000			-4.556			-1.139
230401.000			-4.556			-1.139
230501.000			-4.555			-1.139
230600.000			-4.554			-1.139
230700.000			-4.554			-1.139
230801.000			-4.554			-1.139
230900.000			-4.555			-1.139
231000.000			-4.556			-1.139
231101.000			-4.555			-1.139
231201.000			-4.555			-1.139
231301.000			-4.553			-1.138
231401.000			-4.553			-1.138
231500.000			-4.554			-1.139
231600.000			-4.555			-1.139
231700.000			-4.555			-1.139
231800.000			-4.554			-1.138
231901.000			-4.553			-1.138
232000.000			-4.554			-1.139
232101.000			-4.554			-1.138
232202.000			-4.553			-1.138
232300.000			-4.554			-1.138
232400.000			-4.554			-1.138
232501.000			-4.554			-1.138
232600.000			-4.554			-1.139
232700.000			-4.553			-1.138
232801.000			-4.553			-1.138
232900.000			-4.554			-1.138
233001.000			-4.554			-1.138
233102.000			-4.554			-1.138
233200.000			-4.553			-1.138
233300.000			-4.553			-1.138
233401.000			-4.553			-1.138
233500.000			-4.553			-1.138
233600.000			-4.554			-1.138
233701.000			-4.554			-1.139
233800.000			-4.553			-1.138
233901.000			-4.554			-1.138
234002.000			-4.553			-1.138
234100.000			-4.553			-1.138
234200.000			-4.553			-1.138
234301.000			-4.552			-1.138
234400.000			-4.552			-1.138
234500.000			-4.552			-1.138
234601.000			-4.553			-1.138
234700.000			-4.553			-1.138
234802.000			-4.552			-1.138
234901.000			-4.552			-1.138
235001.000			-4.553			-1.138
235101.000			-4.552			-1.138
235200.000			-4.551			-1.138
235300.000			-4.551			-1.138
235401.000			-4.552			-1.138
235500.000			-4.552			-1.138
235600.000			-4.553			-1.138
235702.000			-4.552			-1.138
235801.000			-4.552			-1.138
235900.000			-4.552			-1.138
236001.000			-4.552			-1.138
236100.000			-4.551			-1.138
236200.000			-4.552			-1.138
236301.000			-4.551			-1.138
236400.000			-4.552			-1.138
236500.000			-4.552			-1.138
236602.000			-4.552			-1.138
236701.000			-4.552			-1.138
236800.000			-4.551			-1.138
236901.000			-4.551			-1.138
237000.000			-4.551			-1.138
237100.000			-4.551			-1.138
237201.000			-4.551			-1.138
237300.000			-4.551			-1.138
237400.000			-4.552			-1.138
237502.000			-4.551			-1.138
237601.000			-4.551			-1.138
237701.000			-4.552			-1.138
237801.000			-4.551			-1.138
237900.000			-4.551			-1.138
238000.000			-4.551			-1.138
238100.000			-4.551			-1.138
238200.000			-4.551			-1.138
238301.000			-4.551			-1.138
238401.000			-4.550			-1.138
238501.000			-4.550			-1.138
238602.000			-4.550			-1.138
238700.000			-4.550			-1.138
238800.000			-4.550			-1.137
238901.000			-4.550			-1.137
239000.000			-4.550			-1.138
239100.000			-4.550			-1.138
239201.000			-4.550			-1.138
239301.000			-4.549			-1.137
239401.000			-4.550			-1.137
239502.000			-4.550			-1.137
239600.000			-4.550			-1.137
239700.000			-4.549			-1.137
239801.000			-4.550			-1.137
239900.000			-4.550			-1.137
240000.000			-4.550			-1.137
240101.000			-4.549			-1.137
240200.000			-4.549			-1.137
240301.000			-4.550			-1.137
240402.000			-4.550			-1.137
240501.000			-4.551			-1.138
240600.000			-4.550			-1.138
240701.000			-4.550			-1.137
240800.000			-4.549			-1.137
240900.000			-4.550			-1.137
241001.000			-4.550			-1.137
241100.000			-4.550			-1.138
241202.000			-4.550			-1.137
241301.000			-4.549			-1.137
241401.000			-4.549			-1.137
241501.000			-4.550			-1.137
241600.000			-4.550			-1.138
241700.000			-4.550			-1.137
241801.000			-4.549			-1.137
241900.000			-4.549			-1.137
242000.000			-4.550			-1.137
242101.000			-4.550			-1.138
242201.000			-4.549			-1.137
242301.000			-4.550			-1.137
242401.000			-4.549			-1.137
242500.000			-4.549			-1.137
242600.000			-4.549			-1.137
242701.000			-4.550			-1.137
242800.000			-4.549			-1.137
242900.000			-4.550			-1.137
243001.000			-4.549			-1.137
243101.000			-4.548			-1.137
243201.000			-4.548			-1.137
243301.000			-4.549			-1.137
243400.000			-4.549			-1.137
243500.000			-4.548			-1.137
243601.000			-4.547			-1.137
243700.000			-4.548			-1.137
243800.000			-4.549			-1.137
243901.000			-4.548			-1.137
244001.000			-4.548			-1.137
244101.000			-4.549			-1.137
244201.000			-4.548			-1.137
244300.000			-4.548			-1.137
244400.000			-4.547			-1.137
244500.000			-4.547			-1.137
244600.000			-4.547			-1.137
244701.000			-4.547			-1.137
244800.000			-4.548			-1.137
244901.000			-4.548			-1.137
245002.000			-4.549			-1.137
245101.000			-4.548			-1.137
245200.000			-4.548			-1.137
245301.000			-4.549			-1.137
245400.000			-4.548			-1.137
245500.000			-4.547			-1.137
245601.000			-4.547			-1.137
245700.000			-4.547			-1.137
245800.000			-4.547			-1.137
245902.000			-4.547			-1.137
246001.000			-4.548			-1.137
246100.000			-4.547			-1.137
246201.000			-4.548			-1.137
246300.000			-4.549			-1.137
246400.000			-4.548			-1.137
246501.000			-4.547			-1.137
246600.000			-4.548			-1.137
246700.000			-4.548			-1.137
246802.000			-4.547			-1.137
246901.000			-4.547			-1.137
247001.000			-4.547			-1.137
247101.000			-4.548			-1.137
247200.000			-4.547			-1.137
247300.000			-4.546			-1.137
247401.000			-4.546			-1.137
247500.000			-4.546			-1.137
247600.000			-4.547			-1.137
247702.000			-4.547			-1.137
247801.000			-4.546			-1.137
247902.000			-4.546			-1.136
248000.000			-4.547			-1.137
248100.000			-4.547			-1.137
248201.000			-4.547			-1.137
248300.000			-4.548			-1.137
248400.000			-4.547			-1.137
248501.000			-4.546			-1.137
248600.000			-4.547			-1.137
248701.000			-4.546			-1.136
248802.000			-4.546			-1.137
248901.000			-4.546			-1.137
249000.000			-4.546			-1.136
249101.000			-4.545			-1.136
249200.000			-4.546			-1.136
249300.000			-4.546			-1.136
249401.000			-4.546			-1.136
249500.000			-4.545			-1.136
249600.000			-4.545			-1.136
249702.000			-4.546			-1.136
249801.000			-4.546			-1.137
249900.000			-4.546			-1.137
250001.000			-4.546			-1.137
250100.000			-4.546			-1.136
250200.000			-4.546			-1.136
250301.000			-4.545			-1.136
250400.000			-4.544			-1.136
250500.000			-4.546			-1.136
250602.000			-4.546			-1.136
250701.000			-4.546			-1.136
250802.000			-4.545			-1.136
250900.000			-4.545			-1.136
251000.000			-4.546			-1.136
251101.000			-4.545			-1.136
251200.000			-4.544			-1.136
251300.000			-4.544			-1.136
251401.000			-4.543			-1.136
251501.000			-4.544			-1.136
251601.000			-4.545			-1.136
251702.000			-4.545			-1.136
251800.000			-4.545			-1.136
251900.000			-4.544			-1.136
252001.000			-4.544			-1.136
252100.000			-4.544			-1.136
252200.000			-4.545			-1.136
252301.000			-4.545			-1.136
252401.000			-4.545			-1.136
252501.000			-4.544			-1.136
252602.000			-4.544			-1.136
252700.000			-4.545			-1.136
252800.000			-4.544			-1.136
252901.000			-4.545			-1.136
253000.000			-4.544			-1.136
253100.000			-4.544			-1.136
253201.000			-4.545			-1.136
253301.000			-4.543			-1.136
253401.000			-4.542			-1.136
253502.000			-4.544			-1.136
253600.000			-4.544			-1.136
253700.000			-4.543			-1.136
253801.000			-4.543			-1.136
253900.000			-4.544			-1.136
254000.000			-4.543			-1.136
254100.000			-4.543			-1.136
254200.000			-4.542			-1.135
254302.000			-4.543			-1.136
254401.000			-4.543			-1.136
254500.000			-4.543			-1.136
254601.000			-4.543			-1.136
254700.000			-4.543			-1.136
254800.000			-4.542			-1.135
254901.000			-4.543			-1.136
255000.000			-4.543			-1.136
255100.000			-4.542			-1.136
255202.000			-4.543			-1.136
255301.000			-4.543			-1.136
255400.000			-4.542			-1.136
255501.000			-4.541			-1.135
255600.000			-4.542			-1.136
255700.000			-4.542			-1.135
255801.000			-4.542			-1.136
255900.000			-4.542			-1.135
256000.000			-4.542			-1.135
256102.000			-4.542			-1.136
256201.000			-4.542			-1.135
256301.000			-4.543			-1.136
256401.000			-4.542			-1.136
256500.000			-4.542			-1.135
256600.000			-4.542			-1.136
256701.000			-4.543			-1.136
256800.000			-4.542			-1.136
256900.000			-4.542			-1.136
257002.000			-4.542			-1.136
257101.000			-4.543			-1.136
257202.000			-4.542			-1.136
257300.000			-4.541			-1.135
257400.000			-4.541			-1.135
257501.000			-4.541			-1.135
257600.000			-4.542			-1.135
257700.000			-4.542			-1.136
257801.000			-4.541			-1.135
257900.000			-4.541			-1.135
258001.000			-4.540			-1.135
258102.000			-4.540			-1.135
258200.000			-4.539			-1.135
258300.000			-4.540			-1.135
258401.000			-4.541			-1.135
258500.000			-4.541			-1.135
258600.000			-4.541			-1.135
258701.000			-4.541			-1.135
258800.000			-4.541			-1.135
258901.000			-4.541			-1.135
259002.000			-4.540			-1.135
259100.000			-4.541			-1.135
259200.000			-4.541			-1.135
259301.000			-4.541			-1.135
259400.000			-4.541			-1.135
259500.000			-4.541			-1.135
259601.000			-4.541			-1.135
259700.000			-4.541			-1.135
259801.000			-4.540			-1.135
259902.000			-4.540			-1.135
260001.000			-4.539			-1.135
260100.000			-4.540			-1.135
260201.000			-4.540			-1.135
260300.000			-4.540			-1.135
260400.000			-4.540			-1.135
260500.000			-4.540			-1.135
260600.000			-4.540			-1.135
260702.000			-4.539			-1.135
260801.000			-4.540			-1.135
260901.000			-4.539			-1.135
261001.000			-4.539			-1.135
261100.000			-4.540			-1.135
261200.000			-4.540			-1.135
261301.000			-4.540			-1.135
261400.000			-4.540			-1.135
261500.000			-4.539			-1.135
261601.000			-4.539			-1.135
261701.000			-4.539			-1.135
261801.000			-4.539			-1.135
261901.000			-4.539			-1.135
262000.000			-4.539			-1.135
262100.000			-4.539			-1.135
262201.000			-4.540			-1.135
262300.000			-4.539			-1.135
262400.000			-4.539			-1.135
262501.000			-4.539			-1.135
262601.000			-4.538			-1.135
262701.000			-4.538			-1.135
262801.000			-4.538			-1.135
262900.000			-4.538			-1.135
263000.000			-4.539			-1.135
263101.000			-4.538			-1.135
263200.000			-4.539			-1.135
263300.000			-4.538			-1.135
263401.000			-4.538			-1.135
263501.000			-4.539			-1.135
263602.000			-4.538			-1.135
263701.000			-4.538			-1.135
263800.000			-4.539			-1.135
263901.000			-4.537			-1.134
264000.000			-4.537			-1.134
264100.000			-4.537			-1.134
264201.000			-4.538			-1.135
264300.000			-4.538			-1.134
264400.000			-4.538			-1.134
264502.000			-4.539			-1.135
264601.000			-4.539			-1.135
264700.000			-4.537			-1.134
264801.000			-4.537			-1.134
264900.000			-4.538			-1.134
265000.000			-4.537			-1.134
265101.000			-4.537			-1.134
265200.000			-4.538			-1.134
265300.000			-4.538			-1.134
265402.000			-4.537			-1.134
265501.000			-4.538			-1.135
265600.000			-4.539			-1.135
265701.000			-4.537			-1.134
265800.000			-4.537			-1.134
265900.000			-4.537			-1.134
266001.000			-4.537			-1.134
266100.000			-4.537			-1.134
266200.000			-4.537			-1.134
266302.000			-4.537			-1.134
266401.000			-4.537			-1.134
266501.000			-4.537			-1.134
266601.000			-4.536			-1.134
266700.000			-4.537			-1.134
266800.000			-4.537			-1.134
266900.000			-4.537			-1.134
267000.000			-4.537			-1.134
267101.000			-4.537			-1.134
267200.000			-4.536			-1.134
267301.000			-4.536			-1.134
267402.000			-4.536			-1.134
267500.000			-4.536			-1.134
267600.000			-4.537			-1.134
267701.000			-4.537			-1.134
267800.000			-4.536			-1.134
267900.000			-4.536			-1.134
268001.000			-4.537			-1.134
268100.000			-4.536			-1.134
268201.000			-4.536			-1.134
268302.000			-4.535			-1.134
268400.000			-4.535			-1.134
268500.000			-4.536			-1.134
268601.000			-4.536			-1.134
268700.000			-4.535			-1.134
268800.000			-4.535			-1.134
268901.000			-4.536			-1.134
269000.000			-4.535			-1.134
269101.000			-4.537			-1.134
269202.000			-4.536			-1.134
269301.000			-4.534			-1.134
269400.000			-4.535			-1.134
269501.000			-4.535			-1.134
269600.000			-4.535			-1.134
269700.000			-4.536			-1.134
269801.000			-4.536			-1.134
269900.000			-4.535			-1.134
270000.000			-4.534			-1.134
270102.000			-4.535			-1.134
270201.000			-4.535			-1.134
270301.000			-4.535			-1.134
270400.000			-4.535			-1.134
270500.000			-4.535			-1.134
270601.000			-4.535			-1.134
270700.000			-4.536			-1.134
270800.000			-4.536			-1.134
270901.000			-4.534			-1.134
271001.000			-4.534			-1.134
271101.000			-4.535			-1.134
271201.000			-4.534			-1.134
271300.000			-4.534			-1.133
271400.000			-4.535			-1.134
271501.000			-4.534			-1.134
271600.000			-4.535			-1.134
271700.000			-4.534			-1.133
271801.000			-4.534			-1.133
271901.000			-4.535			-1.134
272001.000			-4.533			-1.133
272101.000			-4.533			-1.133
272200.000			-4.533			-1.133
272300.000			-4.533			-1.133
272401.000			-4.534			-1.133
272500.000			-4.533			-1.133
272600.000			-4.534			-1.134
272701.000			-4.534			-1.134
272801.000			-4.534			-1.133
272901.000			-4.533			-1.133
273001.000			-4.531			-1.133
273100.000			-4.533			-1.133
273200.000			-4.534			-1.134
273300.000			-4.535			-1.134
273400.000			-4.532			-1.133
273501.000			-4.532			-1.133
273600.000			-4.533			-1.133
273701.000			-4.533			-1.133
273802.000			-4.532			-1.133
273900.000			-4.534			-1.133
274000.000			-4.533			-1.133
274101.000			-4.532			-1.133
274200.000			-4.532			-1.133
274300.000			-4.533			-1.133
274401.000			-4.533			-1.133
274500.000			-4.532			-1.133
274601.000			-4.532			-1.133
274702.000			-4.533			-1.133
274801.000			-4.533			-1.133
274900.000			-4.533			-1.133
275001.000			-4.533			-1.133
275100.000			-4.533			-1.133
275200.000			-4.532			-1.133
275301.000			-4.532			-1.133
275400.000			-4.533			-1.133
275501.000			-4.533			-1.133
275602.000			-4.532			-1.133
275701.000			-4.532			-1.133
275800.000			-4.532			-1.133
275901.000			-4.532			-1.133
276000.000			-4.532			-1.133
276100.000			-4.532			-1.133
276201.000			-4.532			-1.133
276300.000			-4.531			-1.133
276400.000			-4.532			-1.133
276502.000			-4.532			-1.133
276601.000			-4.532			-1.133
276701.000			-4.533			-1.133
276800.000			-4.533			-1.133
276900.000			-4.533			-1.133
277001.000			-4.532			-1.133
277100.000			-4.532			-1.133
277200.000			-4.532			-1.133
277301.000			-4.531			-1.133
277401.000			-4.531			-1.133
277501.000			-4.532			-1.133
277601.000			-4.532			-1.133
277700.000			-4.532			-1.133
277800.000			-4.532			-1.133
277901.000			-4.530			-1.133
278000.000			-4.530			-1.133
278100.000			-4.531			-1.133
278201.000			-4.531			-1.133
278301.000			-4.530			-1.133
278401.000			-4.531			-1.133
278502.000			-4.531			-1.133
278600.000			-4.531			-1.133
278700.000			-4.530			-1.133
278801.000			-4.530			-1.133
278900.000			-4.530			-1.132
279000.000			-4.529			-1.132
279101.000			-4.530			-1.133
279201.000			-4.531			-1.133
279301.000			-4.531			-1.133
279402.000			-4.531			-1.133
279500.000			-4.530			-1.132
279600.000			-4.530			-1.132
279700.000			-4.529			-1.132
279800.000			-4.530			-1.133
279901.000			-4.531			-1.133
280000.000			-4.531			-1.133
280100.000			-4.530			-1.132
280202.000			-4.529			-1.132
280301.000			-4.530			-1.133
280400.000			-4.530			-1.132
280501.000			-4.530			-1.132
280600.000			-4.530			-1.133
280700.000			-4.531			-1.133
280801.000			-4.531			-1.133
280900.000			-4.530			-1.132
281000.000			-4.530			-1.132
281102.000			-4.530			-1.132
281201.000			-4.530			-1.133
281300.000			-4.530			-1.133
281401.000			-4.529			-1.132
281500.000			-4.529			-1.132
281600.000			-4.530			-1.133
281701.000			-4.530			-1.132
281800.000			-4.529			-1.132
281900.000			-4.529			-1.132
282002.000			-4.530			-1.132
282101.000			-4.529			-1.132
282201.000			-4.529			-1.132
282301.000			-4.530			-1.133
282400.000			-4.530			-1.132
282500.000			-4.529			-1.132
282601.000			-4.529			-1.132
282700.000			-4.529			-1.132
282800.000			-4.530			-1.133
282902.000			-4.529			-1.132
283001.000			-4.529			-1.132
283102.000			-4.529			-1.132
283200.000			-4.530			-1.132
283300.000			-4.530			-1.132
283401.000			-4.529			-1.132
283500.000			-4.528			-1.132
283600.000			-4.530			-1.132
283701.000			-4.529			-1.132
283800.000			-4.530			-1.132
283901.000			-4.529			-1.132
284002.000			-4.528			-1.132
284100.000			-4.529			-1.132
284200.000			-4.529			-1.132
284301.000			-4.529			-1.132
284400.000			-4.528			-1.132
284500.000			-4.529			-1.132
284601.000			-4.529			-1.132
284700.000			-4.529			-1.132
284801.000			-4.528			-1.132
284902.000			-4.528			-1.132
285000.000			-4.529			-1.132
285100.000			-4.529			-1.132
285201.000			-4.529			-1.132
285300.000			-4.528			-1.132
285400.000			-4.528			-1.132
285501.000			-4.528			-1.132
285600.000			-4.528			-1.132
285701.000			-4.527			-1.132
285802.000			-4.528			-1.132
285901.000			-4.528			-1.132
286000.000			-4.529			-1.132
286100.000			-4.528			-1.132
286200.000			-4.527			-1.132
286301.000			-4.527			-1.132
286400.000			-4.529			-1.132
286500.000			-4.528			-1.132
286601.000			-4.527			-1.132
286701.000			-4.528			-1.132
286801.000			-4.529			-1.132
286901.000			-4.528			-1.132
287000.000			-4.528			-1.132
287100.000			-4.528			-1.132
287201.000			-4.527			-1.132
287300.000			-4.527			-1.132
287400.000			-4.528			-1.132
287501.000			-4.528			-1.132
287601.000			-4.527			-1.132
287701.000			-4.527			-1.132
287802.000			-4.528			-1.132
287900.000			-4.527			-1.132
288000.000			-4.527			-1.132
288101.000			-4.527			-1.132
288200.000			-4.527			-1.132
288300.000			-4.528			-1.132
288401.000			-4.527			-1.132
288500.000			-4.527			-1.132
288601.000			-4.527			-1.132
288702.000			-4.527			-1.132
288800.000			-4.526			-1.131
288900.000			-4.527			-1.132
289001.000			-4.527			-1.132
289100.000			-4.527			-1.132
289200.000			-4.527			-1.132
289300.000			-4.526			-1.132
289400.000			-4.526			-1.132
289502.000			-4.526			-1.132
289601.000			-4.526			-1.132
289701.000			-4.526			-1.132
289801.000			-4.527			-1.132
289900.000			-4.528			-1.132
290000.000			-4.528			-1.132
290101.000			-4.527			-1.132
290200.000			-4.527			-1.132
290300.000			-4.526			-1.131
290401.000			-4.527			-1.132
290501.000			-4.526			-1.132
290601.000			-4.527			-1.132
290701.000			-4.527			-1.132
290800.000			-4.527			-1.132
290900.000			-4.525			-1.131
291001.000			-4.525			-1.131
291100.000			-4.525			-1.131
291200.000			-4.526			-1.132
291301.000			-4.526			-1.132
291401.000			-4.525			-1.131
291501.000			-4.526			-1.132
291601.000			-4.526			-1.131
291700.000			-4.526			-1.132
291800.000			-4.525			-1.131
291901.000			-4.525			-1.131
292000.000			-4.525			-1.131
292100.000			-4.525			-1.131
292201.000			-4.525			-1.131
292301.000			-4.524			-1.131
292402.000			-4.524			-1.131
292500.000			-4.524			-1.131
292600.000			-4.525			-1.131
292701.000			-4.525			-1.131
292800.000			-4.525			-1.131
292900.000			-4.526			-1.131
293001.000			-4.525			-1.131
293100.000			-4.525			-1.131
293201.000			-4.525			-1.131
293302.000			-4.525			-1.131
293401.000			-4.526			-1.131
293500.000			-4.525			-1.131
293601.000			-4.524			-1.131
293700.000			-4.524			-1.131
293800.000			-4.524			-1.131
293901.000			-4.524			-1.131
294000.000			-4.525			-1.131
294101.000			-4.525			-1.131
294202.000			-4.525			-1.131
294301.000			-4.525			-1.131
294400.000			-4.526			-1.131
294501.000			-4.524			-1.131
294600.000			-4.524			-1.131
294700.000			-4.524			-1.131
294801.000			-4.525			-1.131
294900.000			-4.524			-1.131
295000.000			-4.524			-1.131
295102.000			-4.524			-1.131
295201.000			-4.524			-1.131
295300.000			-4.524			-1.131
295401.000			-4.524			-1.131
295500.000			-4.524			-1.131
295600.000			-4.523			-1.131
295700.000			-4.524			-1.131
295800.000			-4.524			-1.131
295901.000			-4.524			-1.131
296001.000			-4.524			-1.131
296101.000			-4.523			-1.131
296201.000			-4.524			-1.131
296300.000			-4.525			-1.131
296400.000			-4.523			-1.131
296501.000			-4.524			-1.131
296600.000			-4.524			-1.131
296700.000			-4.523			-1.131
296801.000			-4.523			-1.131
296901.000			-4.523			-1.131
297001.000			-4.522			-1.131
297101.000			-4.522			-1.131
297200.000			-4.524			-1.131
297300.000			-4.523			-1.131
297401.000			-4.523			-1.131
297500.000			-4.523			-1.131
297600.000			-4.523			-1.131
297701.000			-4.524			-1.131
297801.000			-4.524			-1.131
297901.000			-4.524			-1.131
298002.000			-4.523			-1.131
298100.000			-4.524			-1.131
298200.000			-4.524			-1.131
298301.000			-4.523			-1.131
298400.000			-4.523			-1.131
298500.000			-4.523			-1.131
298601.000			-4.523			-1.131
298701.000			-4.522			-1.131
298802.000			-4.522			-1.131
298901.000			-4.523			-1.131
299000.000			-4.523			-1.131
299101.000			-4.523			-1.131
299200.000			-4.522			-1.131
299300.000			-4.521			-1.130
299401.000			-4.522			-1.130
299500.000			-4.522			-1.131
299600.000			-4.522			-1.131
299702.000			-4.523			-1.131
299801.000			-4.523			-1.131
299900.000			-4.523			-1.131
