# Acquired on 20/12/2023 11:11:05 
# SPIDER: Creep_3mm_0771453C
# CREEP MEASUREMENT

# time [ms]		force [N]		stiffness [N/mm]
0.000			-11.240			-3.747
100.000			-13.173			-4.391
201.000			-14.147			-4.716
300.000			-14.353			-4.784
400.000			-14.317			-4.772
502.000			-14.290			-4.763
600.000			-14.268			-4.756
700.000			-14.247			-4.749
801.000			-14.229			-4.743
900.000			-14.213			-4.738
1000.000			-14.200			-4.733
1101.000			-14.174			-4.725
1201.000			-14.162			-4.721
1301.000			-14.152			-4.717
1401.000			-14.142			-4.714
1500.000			-14.133			-4.711
1600.000			-14.124			-4.708
1701.000			-14.116			-4.705
1800.000			-14.101			-4.700
1901.000			-14.093			-4.698
2002.000			-14.087			-4.696
2100.000			-14.080			-4.693
2200.000			-14.073			-4.691
2301.000			-14.068			-4.689
2400.000			-14.061			-4.687
2500.000			-14.050			-4.683
2601.000			-14.045			-4.682
2701.000			-14.041			-4.680
2802.000			-14.035			-4.678
2900.000			-14.030			-4.677
3000.000			-14.026			-4.675
3101.000			-14.021			-4.674
3200.000			-14.017			-4.672
3300.000			-14.007			-4.669
3402.000			-14.003			-4.668
3501.000			-14.000			-4.667
3600.000			-13.996			-4.665
3701.000			-13.992			-4.664
3800.000			-13.989			-4.663
3900.000			-13.986			-4.662
4001.000			-13.978			-4.659
4100.000			-13.974			-4.658
4201.000			-13.970			-4.657
4302.000			-13.967			-4.656
4400.000			-13.965			-4.655
4500.000			-13.961			-4.654
4601.000			-13.958			-4.653
4700.000			-13.952			-4.651
4800.000			-13.950			-4.650
4901.000			-13.947			-4.649
5001.000			-13.943			-4.648
5101.000			-13.940			-4.647
5201.000			-13.938			-4.646
5300.000			-13.936			-4.645
5400.000			-13.933			-4.644
5501.000			-13.928			-4.643
5600.000			-13.925			-4.642
5701.000			-13.922			-4.641
5802.000			-13.920			-4.640
5900.000			-13.918			-4.639
6001.000			-13.915			-4.638
6100.000			-13.913			-4.638
6200.000			-13.909			-4.636
6301.000			-13.906			-4.635
6400.000			-13.904			-4.635
6501.000			-13.903			-4.634
6602.000			-13.900			-4.633
6700.000			-13.897			-4.632
6800.000			-13.896			-4.632
6901.000			-13.892			-4.631
7000.000			-13.890			-4.630
7100.000			-13.888			-4.629
7201.000			-13.885			-4.628
7301.000			-13.883			-4.628
7401.000			-13.882			-4.627
7501.000			-13.879			-4.626
7600.000			-13.877			-4.626
7700.000			-13.875			-4.625
7801.000			-13.873			-4.624
7900.000			-13.870			-4.623
8000.000			-13.869			-4.623
8102.000			-13.868			-4.623
8201.000			-13.866			-4.622
8300.000			-13.864			-4.621
8401.000			-13.860			-4.620
8500.000			-13.857			-4.619
8600.000			-13.856			-4.619
8701.000			-13.855			-4.618
8800.000			-13.854			-4.618
8901.000			-13.852			-4.617
9002.000			-13.851			-4.617
9100.000			-13.849			-4.616
9201.000			-13.845			-4.615
9300.000			-13.845			-4.615
9400.000			-13.844			-4.615
9501.000			-13.842			-4.614
9601.000			-13.840			-4.613
9701.000			-13.837			-4.612
9801.000			-13.836			-4.612
9900.000			-13.834			-4.611
10000.000			-13.832			-4.611
10101.000			-13.831			-4.610
10200.000			-13.829			-4.610
10300.000			-13.827			-4.609
10402.000			-13.826			-4.609
10501.000			-13.825			-4.608
10600.000			-13.823			-4.608
10701.000			-13.822			-4.607
10800.000			-13.821			-4.607
10900.000			-13.819			-4.606
11001.000			-13.818			-4.606
11100.000			-13.816			-4.605
11201.000			-13.814			-4.605
11302.000			-13.811			-4.604
11400.000			-13.811			-4.604
11500.000			-13.811			-4.604
11601.000			-13.808			-4.603
11700.000			-13.807			-4.602
11800.000			-13.806			-4.602
11901.000			-13.805			-4.602
12001.000			-13.803			-4.601
12101.000			-13.800			-4.600
12201.000			-13.799			-4.600
12300.000			-13.799			-4.600
12401.000			-13.798			-4.599
12500.000			-13.796			-4.599
12600.000			-13.795			-4.598
12701.000			-13.794			-4.598
12801.000			-13.791			-4.597
12901.000			-13.790			-4.597
13001.000			-13.789			-4.596
13100.000			-13.788			-4.596
13200.000			-13.787			-4.596
13301.000			-13.786			-4.595
13400.000			-13.785			-4.595
13500.000			-13.785			-4.595
13602.000			-13.783			-4.594
13701.000			-13.781			-4.594
13800.000			-13.779			-4.593
13901.000			-13.778			-4.593
14000.000			-13.778			-4.593
14100.000			-13.777			-4.592
14201.000			-13.776			-4.592
14300.000			-13.774			-4.591
14400.000			-13.772			-4.591
14502.000			-13.770			-4.590
14601.000			-13.770			-4.590
14700.000			-13.770			-4.590
14801.000			-13.768			-4.589
14900.000			-13.768			-4.589
15000.000			-13.765			-4.588
15101.000			-13.763			-4.588
15201.000			-13.763			-4.588
15301.000			-13.763			-4.588
15402.000			-13.762			-4.587
15500.000			-13.761			-4.587
15601.000			-13.760			-4.587
15700.000			-13.759			-4.586
15800.000			-13.758			-4.586
15901.000			-13.756			-4.585
16000.000			-13.756			-4.585
16101.000			-13.755			-4.585
16202.000			-13.754			-4.585
16300.000			-13.753			-4.584
16400.000			-13.751			-4.584
16501.000			-13.750			-4.583
16600.000			-13.749			-4.583
16700.000			-13.748			-4.583
16801.000			-13.747			-4.582
16901.000			-13.746			-4.582
17001.000			-13.745			-4.582
17101.000			-13.745			-4.582
17200.000			-13.743			-4.581
17300.000			-13.742			-4.581
17401.000			-13.741			-4.580
17500.000			-13.740			-4.580
17600.000			-13.739			-4.580
17702.000			-13.738			-4.579
17801.000			-13.738			-4.579
17900.000			-13.737			-4.579
18001.000			-13.735			-4.578
18100.000			-13.734			-4.578
18200.000			-13.734			-4.578
18301.000			-13.733			-4.578
18400.000			-13.732			-4.577
18501.000			-13.732			-4.577
18602.000			-13.731			-4.577
18700.000			-13.729			-4.576
18801.000			-13.728			-4.576
18900.000			-13.728			-4.576
19000.000			-13.728			-4.576
19101.000			-13.726			-4.575
19200.000			-13.726			-4.575
19301.000			-13.724			-4.575
19402.000			-13.722			-4.574
19500.000			-13.722			-4.574
19600.000			-13.720			-4.573
19701.000			-13.720			-4.573
19800.000			-13.721			-4.574
19900.000			-13.721			-4.574
20001.000			-13.718			-4.573
20101.000			-13.717			-4.572
20201.000			-13.717			-4.572
20301.000			-13.716			-4.572
20400.000			-13.716			-4.572
20500.000			-13.715			-4.572
20601.000			-13.713			-4.571
20700.000			-13.712			-4.571
20800.000			-13.711			-4.570
20902.000			-13.711			-4.570
21001.000			-13.710			-4.570
21100.000			-13.710			-4.570
21201.000			-13.709			-4.570
21300.000			-13.709			-4.570
21400.000			-13.708			-4.569
21501.000			-13.707			-4.569
21601.000			-13.705			-4.568
21701.000			-13.705			-4.568
21801.000			-13.704			-4.568
21900.000			-13.703			-4.568
22001.000			-13.703			-4.568
22100.000			-13.703			-4.568
22200.000			-13.702			-4.567
22301.000			-13.702			-4.567
22401.000			-13.699			-4.566
22501.000			-13.697			-4.566
22601.000			-13.697			-4.566
22700.000			-13.698			-4.566
22800.000			-13.696			-4.565
22901.000			-13.697			-4.566
23000.000			-13.696			-4.565
23100.000			-13.694			-4.565
23202.000			-13.693			-4.564
23301.000			-13.693			-4.564
23400.000			-13.692			-4.564
23501.000			-13.690			-4.563
23600.000			-13.690			-4.563
23700.000			-13.689			-4.563
23801.000			-13.689			-4.563
23900.000			-13.689			-4.563
24001.000			-13.688			-4.563
24102.000			-13.687			-4.562
24201.000			-13.686			-4.562
24300.000			-13.686			-4.562
24401.000			-13.685			-4.562
24500.000			-13.685			-4.562
24600.000			-13.684			-4.561
24701.000			-13.684			-4.561
24801.000			-13.683			-4.561
24901.000			-13.682			-4.561
25002.000			-13.681			-4.560
25100.000			-13.680			-4.560
25201.000			-13.680			-4.560
25300.000			-13.678			-4.559
25400.000			-13.678			-4.559
25501.000			-13.677			-4.559
25600.000			-13.677			-4.559
25701.000			-13.677			-4.559
25802.000			-13.676			-4.559
25900.000			-13.676			-4.559
26000.000			-13.674			-4.558
26101.000			-13.674			-4.558
26200.000			-13.674			-4.558
26300.000			-13.673			-4.558
26401.000			-13.673			-4.558
26501.000			-13.672			-4.557
26601.000			-13.671			-4.557
26701.000			-13.671			-4.557
26800.000			-13.669			-4.556
26900.000			-13.669			-4.556
27001.000			-13.669			-4.556
27100.000			-13.667			-4.556
27200.000			-13.666			-4.555
27302.000			-13.666			-4.555
27401.000			-13.665			-4.555
27500.000			-13.664			-4.555
27601.000			-13.664			-4.555
27700.000			-13.665			-4.555
27800.000			-13.664			-4.555
27901.000			-13.663			-4.554
28000.000			-13.662			-4.554
28101.000			-13.661			-4.554
28202.000			-13.661			-4.554
28300.000			-13.660			-4.553
28401.000			-13.660			-4.553
28500.000			-13.660			-4.553
28600.000			-13.660			-4.553
28701.000			-13.659			-4.553
28800.000			-13.658			-4.553
28901.000			-13.657			-4.552
29002.000			-13.656			-4.552
29100.000			-13.656			-4.552
29200.000			-13.655			-4.552
29301.000			-13.656			-4.552
29400.000			-13.654			-4.551
29500.000			-13.653			-4.551
29601.000			-13.652			-4.551
29701.000			-13.651			-4.550
29801.000			-13.651			-4.550
29901.000			-13.651			-4.550
30000.000			-13.651			-4.550
30100.000			-13.651			-4.550
30201.000			-13.650			-4.550
30300.000			-13.649			-4.550
30400.000			-13.648			-4.549
30502.000			-13.647			-4.549
30601.000			-13.646			-4.549
30700.000			-13.646			-4.549
30801.000			-13.647			-4.549
30900.000			-13.647			-4.549
31000.000			-13.646			-4.549
31101.000			-13.644			-4.548
31200.000			-13.644			-4.548
31301.000			-13.643			-4.548
31402.000			-13.642			-4.547
31500.000			-13.642			-4.547
31601.000			-13.643			-4.548
31700.000			-13.642			-4.547
31800.000			-13.642			-4.547
31901.000			-13.640			-4.547
32000.000			-13.640			-4.547
32101.000			-13.640			-4.547
32202.000			-13.639			-4.546
32300.000			-13.638			-4.546
32400.000			-13.638			-4.546
32501.000			-13.638			-4.546
32600.000			-13.638			-4.546
32700.000			-13.636			-4.545
32801.000			-13.637			-4.546
32901.000			-13.636			-4.545
33001.000			-13.635			-4.545
33101.000			-13.634			-4.545
33200.000			-13.634			-4.545
33300.000			-13.634			-4.545
33401.000			-13.632			-4.544
33500.000			-13.632			-4.544
33601.000			-13.631			-4.544
33702.000			-13.631			-4.544
33800.000			-13.631			-4.544
33900.000			-13.630			-4.543
34001.000			-13.630			-4.543
34100.000			-13.628			-4.543
34200.000			-13.628			-4.543
34301.000			-13.627			-4.542
34401.000			-13.627			-4.542
34501.000			-13.626			-4.542
34601.000			-13.626			-4.542
34700.000			-13.626			-4.542
34801.000			-13.626			-4.542
34900.000			-13.625			-4.542
35000.000			-13.625			-4.542
35101.000			-13.624			-4.541
35201.000			-13.625			-4.542
35301.000			-13.624			-4.541
35401.000			-13.623			-4.541
35500.000			-13.623			-4.541
35600.000			-13.622			-4.541
35701.000			-13.622			-4.541
35800.000			-13.622			-4.541
35900.000			-13.622			-4.541
36002.000			-13.622			-4.541
36101.000			-13.621			-4.540
36200.000			-13.620			-4.540
36301.000			-13.619			-4.540
36400.000			-13.619			-4.540
36500.000			-13.618			-4.539
36601.000			-13.618			-4.539
36700.000			-13.618			-4.539
36801.000			-13.618			-4.539
36902.000			-13.617			-4.539
37000.000			-13.616			-4.539
37100.000			-13.616			-4.539
37201.000			-13.615			-4.538
37300.000			-13.615			-4.538
37400.000			-13.615			-4.538
37501.000			-13.613			-4.538
37601.000			-13.613			-4.538
37701.000			-13.614			-4.538
37801.000			-13.612			-4.537
37900.000			-13.612			-4.537
38001.000			-13.612			-4.537
38100.000			-13.611			-4.537
38200.000			-13.611			-4.537
38301.000			-13.611			-4.537
38401.000			-13.610			-4.537
38501.000			-13.608			-4.536
38601.000			-13.608			-4.536
38700.000			-13.609			-4.536
38800.000			-13.608			-4.536
38901.000			-13.607			-4.536
39000.000			-13.607			-4.536
39100.000			-13.607			-4.536
39202.000			-13.606			-4.535
39301.000			-13.606			-4.535
39400.000			-13.605			-4.535
39501.000			-13.605			-4.535
39600.000			-13.606			-4.535
39700.000			-13.604			-4.535
39801.000			-13.604			-4.535
39900.000			-13.604			-4.535
40001.000			-13.603			-4.534
40102.000			-13.602			-4.534
40200.000			-13.602			-4.534
40300.000			-13.602			-4.534
40401.000			-13.602			-4.534
40500.000			-13.601			-4.534
40600.000			-13.600			-4.533
40702.000			-13.600			-4.533
40801.000			-13.600			-4.533
40900.000			-13.599			-4.533
41001.000			-13.599			-4.533
41100.000			-13.599			-4.533
41201.000			-13.598			-4.533
41300.000			-13.598			-4.533
41400.000			-13.597			-4.532
41502.000			-13.597			-4.532
41601.000			-13.597			-4.532
41701.000			-13.597			-4.532
41801.000			-13.596			-4.532
41900.000			-13.595			-4.532
42000.000			-13.594			-4.531
42101.000			-13.595			-4.532
42200.000			-13.593			-4.531
42301.000			-13.593			-4.531
42402.000			-13.593			-4.531
42500.000			-13.593			-4.531
42600.000			-13.592			-4.531
42701.000			-13.591			-4.530
42800.000			-13.591			-4.530
42900.000			-13.592			-4.531
43001.000			-13.591			-4.530
43101.000			-13.589			-4.530
43201.000			-13.589			-4.530
43301.000			-13.590			-4.530
43400.000			-13.590			-4.530
43500.000			-13.589			-4.530
43601.000			-13.588			-4.529
43700.000			-13.588			-4.529
43800.000			-13.587			-4.529
43902.000			-13.586			-4.529
44001.000			-13.587			-4.529
44100.000			-13.587			-4.529
44201.000			-13.587			-4.529
44300.000			-13.586			-4.529
44401.000			-13.585			-4.528
44500.000			-13.583			-4.528
44600.000			-13.583			-4.528
44702.000			-13.585			-4.528
44801.000			-13.584			-4.528
44901.000			-13.584			-4.528
45001.000			-13.583			-4.528
45100.000			-13.583			-4.528
45200.000			-13.583			-4.528
45301.000			-13.582			-4.527
45400.000			-13.582			-4.527
45501.000			-13.582			-4.527
45602.000			-13.582			-4.527
45701.000			-13.581			-4.527
45800.000			-13.581			-4.527
45901.000			-13.580			-4.527
46000.000			-13.580			-4.527
46100.000			-13.579			-4.526
46201.000			-13.578			-4.526
46300.000			-13.578			-4.526
46401.000			-13.577			-4.526
46502.000			-13.578			-4.526
46600.000			-13.577			-4.526
46700.000			-13.576			-4.525
46801.000			-13.576			-4.525
46900.000			-13.577			-4.526
47000.000			-13.576			-4.525
47101.000			-13.576			-4.525
47201.000			-13.576			-4.525
47301.000			-13.575			-4.525
47401.000			-13.574			-4.525
47500.000			-13.574			-4.525
47601.000			-13.574			-4.525
47700.000			-13.573			-4.524
47800.000			-13.572			-4.524
47901.000			-13.572			-4.524
48001.000			-13.572			-4.524
48101.000			-13.572			-4.524
48201.000			-13.572			-4.524
48300.000			-13.572			-4.524
48400.000			-13.572			-4.524
48501.000			-13.571			-4.524
48600.000			-13.571			-4.524
48700.000			-13.571			-4.524
48802.000			-13.570			-4.523
48901.000			-13.569			-4.523
49000.000			-13.569			-4.523
49101.000			-13.569			-4.523
49200.000			-13.569			-4.523
49300.000			-13.568			-4.523
49401.000			-13.568			-4.523
49500.000			-13.567			-4.522
49601.000			-13.566			-4.522
49702.000			-13.566			-4.522
49801.000			-13.566			-4.522
49900.000			-13.565			-4.522
50001.000			-13.566			-4.522
50100.000			-13.566			-4.522
50200.000			-13.566			-4.522
50301.000			-13.566			-4.522
50401.000			-13.564			-4.521
50501.000			-13.564			-4.521
50602.000			-13.565			-4.522
50700.000			-13.564			-4.521
50801.000			-13.564			-4.521
50900.000			-13.563			-4.521
51000.000			-13.562			-4.521
51101.000			-13.562			-4.521
51201.000			-13.562			-4.521
51301.000			-13.561			-4.520
51401.000			-13.560			-4.520
51500.000			-13.560			-4.520
51600.000			-13.560			-4.520
51701.000			-13.560			-4.520
51800.000			-13.559			-4.520
51900.000			-13.559			-4.520
52002.000			-13.559			-4.520
52101.000			-13.559			-4.520
52200.000			-13.558			-4.519
52301.000			-13.557			-4.519
52400.000			-13.558			-4.519
52500.000			-13.557			-4.519
52601.000			-13.556			-4.519
52700.000			-13.557			-4.519
52801.000			-13.558			-4.519
52902.000			-13.557			-4.519
53001.000			-13.556			-4.519
53100.000			-13.555			-4.518
53201.000			-13.555			-4.518
53300.000			-13.556			-4.519
53400.000			-13.555			-4.518
53501.000			-13.554			-4.518
53601.000			-13.553			-4.518
53701.000			-13.553			-4.518
53801.000			-13.554			-4.518
53900.000			-13.553			-4.518
54001.000			-13.552			-4.517
54100.000			-13.551			-4.517
54200.000			-13.552			-4.517
54301.000			-13.552			-4.517
54401.000			-13.551			-4.517
54501.000			-13.551			-4.517
54602.000			-13.551			-4.517
54700.000			-13.550			-4.517
54800.000			-13.549			-4.516
54901.000			-13.550			-4.517
55000.000			-13.550			-4.517
55100.000			-13.550			-4.517
55202.000			-13.549			-4.516
55301.000			-13.549			-4.516
55401.000			-13.548			-4.516
55501.000			-13.547			-4.516
55600.000			-13.547			-4.516
55700.000			-13.548			-4.516
55801.000			-13.548			-4.516
55900.000			-13.547			-4.516
56000.000			-13.546			-4.515
56102.000			-13.547			-4.516
56201.000			-13.546			-4.515
56300.000			-13.545			-4.515
56401.000			-13.545			-4.515
56500.000			-13.545			-4.515
56600.000			-13.544			-4.515
56701.000			-13.544			-4.515
56800.000			-13.544			-4.515
56901.000			-13.545			-4.515
57002.000			-13.544			-4.515
57100.000			-13.543			-4.514
57201.000			-13.543			-4.514
57300.000			-13.542			-4.514
57400.000			-13.542			-4.514
57501.000			-13.543			-4.514
57600.000			-13.542			-4.514
57701.000			-13.542			-4.514
57802.000			-13.541			-4.514
57900.000			-13.541			-4.514
58000.000			-13.540			-4.513
58101.000			-13.540			-4.513
58200.000			-13.540			-4.513
58300.000			-13.540			-4.513
58401.000			-13.539			-4.513
58501.000			-13.539			-4.513
58601.000			-13.540			-4.513
58701.000			-13.539			-4.513
58800.000			-13.538			-4.513
58900.000			-13.537			-4.512
59001.000			-13.537			-4.512
59100.000			-13.537			-4.512
59200.000			-13.538			-4.513
59302.000			-13.537			-4.512
59401.000			-13.536			-4.512
59500.000			-13.536			-4.512
59601.000			-13.536			-4.512
59700.000			-13.536			-4.512
59800.000			-13.537			-4.512
59901.000			-13.536			-4.512
60000.000			-13.535			-4.512
60101.000			-13.534			-4.511
60202.000			-13.533			-4.511
60300.000			-13.533			-4.511
60401.000			-13.533			-4.511
60500.000			-13.533			-4.511
60600.000			-13.533			-4.511
60701.000			-13.533			-4.511
60800.000			-13.532			-4.511
60901.000			-13.532			-4.511
61002.000			-13.531			-4.510
61100.000			-13.531			-4.510
61200.000			-13.530			-4.510
61301.000			-13.531			-4.510
61400.000			-13.531			-4.510
61500.000			-13.530			-4.510
61602.000			-13.530			-4.510
61701.000			-13.531			-4.510
61801.000			-13.531			-4.510
61901.000			-13.530			-4.510
62000.000			-13.528			-4.509
62100.000			-13.528			-4.509
62201.000			-13.528			-4.509
62300.000			-13.528			-4.509
62401.000			-13.527			-4.509
62502.000			-13.528			-4.509
62600.000			-13.528			-4.509
62700.000			-13.528			-4.509
62801.000			-13.527			-4.509
62900.000			-13.526			-4.509
63000.000			-13.526			-4.509
63101.000			-13.525			-4.508
63201.000			-13.526			-4.509
63301.000			-13.526			-4.509
63401.000			-13.524			-4.508
63500.000			-13.525			-4.508
63601.000			-13.524			-4.508
63700.000			-13.523			-4.508
63800.000			-13.524			-4.508
63901.000			-13.523			-4.508
64001.000			-13.523			-4.508
64101.000			-13.523			-4.508
64201.000			-13.523			-4.508
64300.000			-13.524			-4.508
64400.000			-13.522			-4.507
64501.000			-13.522			-4.507
64600.000			-13.521			-4.507
64700.000			-13.521			-4.507
64802.000			-13.521			-4.507
64901.000			-13.521			-4.507
65000.000			-13.520			-4.507
65101.000			-13.521			-4.507
65200.000			-13.519			-4.506
65300.000			-13.519			-4.506
65401.000			-13.521			-4.507
65500.000			-13.521			-4.507
65601.000			-13.519			-4.506
65702.000			-13.520			-4.507
65801.000			-13.518			-4.506
65900.000			-13.518			-4.506
66001.000			-13.519			-4.506
66100.000			-13.518			-4.506
66200.000			-13.518			-4.506
66301.000			-13.517			-4.506
66401.000			-13.516			-4.505
66501.000			-13.516			-4.505
66602.000			-13.517			-4.506
66700.000			-13.517			-4.506
66801.000			-13.517			-4.506
66900.000			-13.515			-4.505
67000.000			-13.515			-4.505
67101.000			-13.516			-4.505
67200.000			-13.516			-4.505
67301.000			-13.515			-4.505
67402.000			-13.516			-4.505
67500.000			-13.515			-4.505
67600.000			-13.514			-4.505
67701.000			-13.513			-4.504
67800.000			-13.513			-4.504
67900.000			-13.513			-4.504
68001.000			-13.514			-4.505
68101.000			-13.514			-4.505
68201.000			-13.513			-4.504
68301.000			-13.512			-4.504
68400.000			-13.512			-4.504
68500.000			-13.512			-4.504
68601.000			-13.511			-4.504
68700.000			-13.512			-4.504
68800.000			-13.512			-4.504
68902.000			-13.511			-4.504
69001.000			-13.510			-4.503
69100.000			-13.509			-4.503
69201.000			-13.509			-4.503
69300.000			-13.509			-4.503
69400.000			-13.510			-4.503
69501.000			-13.509			-4.503
69600.000			-13.508			-4.503
69701.000			-13.508			-4.503
69802.000			-13.508			-4.503
69900.000			-13.508			-4.503
70001.000			-13.508			-4.503
70100.000			-13.508			-4.503
70200.000			-13.508			-4.503
70301.000			-13.508			-4.503
70400.000			-13.507			-4.502
70501.000			-13.507			-4.502
70602.000			-13.507			-4.502
70700.000			-13.508			-4.503
70800.000			-13.506			-4.502
70901.000			-13.507			-4.502
71000.000			-13.508			-4.503
71100.000			-13.506			-4.502
71201.000			-13.506			-4.502
71301.000			-13.505			-4.502
71401.000			-13.504			-4.501
71501.000			-13.505			-4.502
71600.000			-13.504			-4.501
71700.000			-13.504			-4.501
71801.000			-13.503			-4.501
71900.000			-13.503			-4.501
72000.000			-13.503			-4.501
72102.000			-13.503			-4.501
72201.000			-13.502			-4.501
72300.000			-13.503			-4.501
72401.000			-13.502			-4.501
72500.000			-13.502			-4.501
72600.000			-13.503			-4.501
72701.000			-13.503			-4.501
72800.000			-13.502			-4.501
72901.000			-13.501			-4.500
73002.000			-13.501			-4.500
73100.000			-13.501			-4.500
73201.000			-13.500			-4.500
73300.000			-13.500			-4.500
73400.000			-13.500			-4.500
73501.000			-13.499			-4.500
73600.000			-13.499			-4.500
73701.000			-13.499			-4.500
73802.000			-13.498			-4.499
73900.000			-13.499			-4.500
74000.000			-13.499			-4.500
74101.000			-13.499			-4.500
74200.000			-13.498			-4.499
74300.000			-13.497			-4.499
74401.000			-13.498			-4.499
74501.000			-13.496			-4.499
74601.000			-13.497			-4.499
74701.000			-13.497			-4.499
74800.000			-13.497			-4.499
74900.000			-13.497			-4.499
75001.000			-13.497			-4.499
75100.000			-13.497			-4.499
75200.000			-13.496			-4.499
75301.000			-13.496			-4.499
75401.000			-13.496			-4.499
75501.000			-13.495			-4.498
75601.000			-13.496			-4.499
75700.000			-13.496			-4.499
75800.000			-13.494			-4.498
75901.000			-13.494			-4.498
76000.000			-13.494			-4.498
76100.000			-13.494			-4.498
76202.000			-13.495			-4.498
76301.000			-13.493			-4.498
76401.000			-13.493			-4.498
76500.000			-13.493			-4.498
76600.000			-13.493			-4.498
76701.000			-13.493			-4.498
76800.000			-13.493			-4.498
76900.000			-13.493			-4.498
77002.000			-13.491			-4.497
77101.000			-13.491			-4.497
77201.000			-13.492			-4.497
77301.000			-13.492			-4.497
77400.000			-13.491			-4.497
77500.000			-13.491			-4.497
77601.000			-13.490			-4.497
77700.000			-13.490			-4.497
77800.000			-13.490			-4.497
77902.000			-13.490			-4.497
78001.000			-13.489			-4.496
78100.000			-13.489			-4.496
78201.000			-13.489			-4.496
78300.000			-13.489			-4.496
78400.000			-13.489			-4.496
78501.000			-13.488			-4.496
78600.000			-13.488			-4.496
78701.000			-13.489			-4.496
78802.000			-13.488			-4.496
78901.000			-13.489			-4.496
79000.000			-13.488			-4.496
79101.000			-13.488			-4.496
79200.000			-13.487			-4.496
79300.000			-13.487			-4.496
79401.000			-13.487			-4.496
79500.000			-13.487			-4.496
79602.000			-13.486			-4.495
79701.000			-13.486			-4.495
79800.000			-13.485			-4.495
79901.000			-13.486			-4.495
80000.000			-13.486			-4.495
80100.000			-13.487			-4.496
80201.000			-13.486			-4.495
80300.000			-13.486			-4.495
80400.000			-13.485			-4.495
80502.000			-13.484			-4.495
80601.000			-13.484			-4.495
80700.000			-13.483			-4.494
80801.000			-13.483			-4.494
80900.000			-13.484			-4.495
81000.000			-13.484			-4.495
81101.000			-13.484			-4.495
81200.000			-13.484			-4.495
81301.000			-13.484			-4.495
81402.000			-13.484			-4.495
81500.000			-13.483			-4.494
81600.000			-13.483			-4.494
81701.000			-13.482			-4.494
81800.000			-13.483			-4.494
81900.000			-13.481			-4.494
82001.000			-13.482			-4.494
82101.000			-13.482			-4.494
82201.000			-13.482			-4.494
82301.000			-13.481			-4.494
82400.000			-13.481			-4.494
82500.000			-13.481			-4.494
82601.000			-13.479			-4.493
82700.000			-13.480			-4.493
82801.000			-13.479			-4.493
82901.000			-13.479			-4.493
83001.000			-13.480			-4.493
83101.000			-13.479			-4.493
83200.000			-13.479			-4.493
83300.000			-13.478			-4.493
83401.000			-13.478			-4.493
83500.000			-13.479			-4.493
83600.000			-13.479			-4.493
83701.000			-13.478			-4.493
83801.000			-13.478			-4.493
83901.000			-13.477			-4.492
84001.000			-13.477			-4.492
84100.000			-13.477			-4.492
84200.000			-13.477			-4.492
84301.000			-13.477			-4.492
84400.000			-13.478			-4.493
84500.000			-13.478			-4.493
84602.000			-13.476			-4.492
84701.000			-13.475			-4.492
84801.000			-13.476			-4.492
84901.000			-13.475			-4.492
85000.000			-13.476			-4.492
85100.000			-13.476			-4.492
85201.000			-13.475			-4.492
85300.000			-13.476			-4.492
85400.000			-13.474			-4.491
85502.000			-13.474			-4.491
85601.000			-13.474			-4.491
85700.000			-13.475			-4.492
85801.000			-13.474			-4.491
85900.000			-13.474			-4.491
86001.000			-13.474			-4.491
86100.000			-13.473			-4.491
86200.000			-13.473			-4.491
86302.000			-13.472			-4.491
86401.000			-13.473			-4.491
86500.000			-13.473			-4.491
86601.000			-13.472			-4.491
86700.000			-13.472			-4.491
86800.000			-13.472			-4.491
86901.000			-13.471			-4.490
87000.000			-13.470			-4.490
87101.000			-13.471			-4.490
87202.000			-13.472			-4.491
87300.000			-13.471			-4.490
87400.000			-13.471			-4.490
87501.000			-13.471			-4.490
87600.000			-13.470			-4.490
87700.000			-13.471			-4.490
87801.000			-13.471			-4.490
87901.000			-13.470			-4.490
88001.000			-13.469			-4.490
88102.000			-13.469			-4.490
88200.000			-13.470			-4.490
88300.000			-13.469			-4.490
88401.000			-13.470			-4.490
88500.000			-13.468			-4.489
88600.000			-13.467			-4.489
88701.000			-13.468			-4.489
88801.000			-13.469			-4.490
88901.000			-13.469			-4.490
89001.000			-13.468			-4.489
89100.000			-13.469			-4.490
89201.000			-13.467			-4.489
89300.000			-13.467			-4.489
89400.000			-13.468			-4.489
89501.000			-13.467			-4.489
89601.000			-13.466			-4.489
89701.000			-13.466			-4.489
89802.000			-13.466			-4.489
89900.000			-13.467			-4.489
90000.000			-13.466			-4.489
90101.000			-13.466			-4.489
90200.000			-13.465			-4.488
90300.000			-13.465			-4.488
90401.000			-13.464			-4.488
90501.000			-13.465			-4.488
90601.000			-13.465			-4.488
90701.000			-13.463			-4.488
90800.000			-13.464			-4.488
90900.000			-13.464			-4.488
91001.000			-13.464			-4.488
91100.000			-13.464			-4.488
91200.000			-13.463			-4.488
91302.000			-13.463			-4.488
91401.000			-13.463			-4.488
91500.000			-13.462			-4.487
91601.000			-13.462			-4.487
91700.000			-13.463			-4.488
91800.000			-13.463			-4.488
91901.000			-13.462			-4.487
92000.000			-13.462			-4.487
92101.000			-13.461			-4.487
92202.000			-13.461			-4.487
92300.000			-13.461			-4.487
92401.000			-13.461			-4.487
92500.000			-13.461			-4.487
92600.000			-13.461			-4.487
92701.000			-13.461			-4.487
92800.000			-13.461			-4.487
92901.000			-13.461			-4.487
93002.000			-13.461			-4.487
93100.000			-13.461			-4.487
93200.000			-13.460			-4.487
93301.000			-13.460			-4.487
93400.000			-13.460			-4.487
93500.000			-13.458			-4.486
93601.000			-13.459			-4.486
93701.000			-13.459			-4.486
93801.000			-13.459			-4.486
93902.000			-13.459			-4.486
94000.000			-13.459			-4.486
94100.000			-13.458			-4.486
94201.000			-13.458			-4.486
94300.000			-13.457			-4.486
94400.000			-13.457			-4.486
94501.000			-13.457			-4.486
94601.000			-13.456			-4.485
94701.000			-13.456			-4.485
94801.000			-13.457			-4.486
94900.000			-13.457			-4.486
95000.000			-13.456			-4.485
95101.000			-13.457			-4.486
95200.000			-13.456			-4.485
95300.000			-13.456			-4.485
95402.000			-13.456			-4.485
95501.000			-13.455			-4.485
95602.000			-13.455			-4.485
95700.000			-13.454			-4.485
95800.000			-13.455			-4.485
95901.000			-13.455			-4.485
96000.000			-13.455			-4.485
96100.000			-13.454			-4.485
96201.000			-13.454			-4.485
96301.000			-13.454			-4.485
96401.000			-13.455			-4.485
96501.000			-13.453			-4.484
96600.000			-13.453			-4.484
96700.000			-13.454			-4.485
96801.000			-13.453			-4.484
96900.000			-13.451			-4.484
97000.000			-13.452			-4.484
97102.000			-13.452			-4.484
97201.000			-13.451			-4.484
97300.000			-13.451			-4.484
97401.000			-13.451			-4.484
97500.000			-13.451			-4.484
97600.000			-13.451			-4.484
97701.000			-13.451			-4.484
97800.000			-13.451			-4.484
97901.000			-13.451			-4.484
98002.000			-13.450			-4.483
98100.000			-13.451			-4.484
98200.000			-13.451			-4.484
98301.000			-13.451			-4.484
98400.000			-13.450			-4.483
98500.000			-13.449			-4.483
98601.000			-13.450			-4.483
98701.000			-13.450			-4.483
98802.000			-13.449			-4.483
98901.000			-13.449			-4.483
99000.000			-13.449			-4.483
99101.000			-13.449			-4.483
99200.000			-13.449			-4.483
99300.000			-13.448			-4.483
99401.000			-13.448			-4.483
99500.000			-13.448			-4.483
99601.000			-13.449			-4.483
99702.000			-13.448			-4.483
99800.000			-13.447			-4.482
99900.000			-13.447			-4.482
100001.000			-13.447			-4.482
100100.000			-13.448			-4.483
100200.000			-13.447			-4.482
100301.000			-13.447			-4.482
100401.000			-13.447			-4.482
100501.000			-13.447			-4.482
100601.000			-13.447			-4.482
100700.000			-13.447			-4.482
100800.000			-13.447			-4.482
100901.000			-13.446			-4.482
101000.000			-13.446			-4.482
101100.000			-13.445			-4.482
101201.000			-13.445			-4.482
101301.000			-13.444			-4.481
101401.000			-13.444			-4.481
101501.000			-13.445			-4.482
101600.000			-13.445			-4.482
101700.000			-13.445			-4.482
101801.000			-13.444			-4.481
101900.000			-13.444			-4.481
102001.000			-13.445			-4.482
102101.000			-13.444			-4.481
102201.000			-13.443			-4.481
102301.000			-13.444			-4.481
102400.000			-13.443			-4.481
102500.000			-13.443			-4.481
102601.000			-13.442			-4.481
102700.000			-13.442			-4.481
102800.000			-13.442			-4.481
102902.000			-13.442			-4.481
103001.000			-13.443			-4.481
103100.000			-13.442			-4.481
103201.000			-13.442			-4.481
103300.000			-13.442			-4.481
103400.000			-13.442			-4.481
103501.000			-13.442			-4.481
103600.000			-13.442			-4.481
103701.000			-13.441			-4.480
103802.000			-13.441			-4.480
103900.000			-13.441			-4.480
104000.000			-13.440			-4.480
104101.000			-13.440			-4.480
104200.000			-13.441			-4.480
104300.000			-13.440			-4.480
104401.000			-13.440			-4.480
104501.000			-13.440			-4.480
104601.000			-13.439			-4.480
104701.000			-13.439			-4.480
104800.000			-13.441			-4.480
104900.000			-13.440			-4.480
105001.000			-13.438			-4.479
105100.000			-13.438			-4.479
105201.000			-13.438			-4.479
105300.000			-13.438			-4.479
105401.000			-13.438			-4.479
105502.000			-13.437			-4.479
105600.000			-13.437			-4.479
105700.000			-13.438			-4.479
105801.000			-13.437			-4.479
105900.000			-13.438			-4.479
106000.000			-13.437			-4.479
106101.000			-13.436			-4.479
106201.000			-13.437			-4.479
106301.000			-13.436			-4.479
106401.000			-13.436			-4.479
106500.000			-13.436			-4.479
106600.000			-13.436			-4.479
106701.000			-13.436			-4.479
106800.000			-13.435			-4.478
106900.000			-13.435			-4.478
107002.000			-13.435			-4.478
107101.000			-13.435			-4.478
107200.000			-13.434			-4.478
107301.000			-13.435			-4.478
107400.000			-13.435			-4.478
107500.000			-13.434			-4.478
107601.000			-13.434			-4.478
107700.000			-13.434			-4.478
107800.000			-13.433			-4.478
107902.000			-13.432			-4.477
108001.000			-13.433			-4.478
108100.000			-13.434			-4.478
108201.000			-13.434			-4.478
108300.000			-13.433			-4.478
108401.000			-13.433			-4.478
108500.000			-13.433			-4.478
108600.000			-13.433			-4.478
108702.000			-13.433			-4.478
108801.000			-13.432			-4.477
108900.000			-13.432			-4.477
109001.000			-13.432			-4.477
109100.000			-13.432			-4.477
109200.000			-13.431			-4.477
109301.000			-13.431			-4.477
109400.000			-13.431			-4.477
109501.000			-13.431			-4.477
109602.000			-13.430			-4.477
109700.000			-13.431			-4.477
109800.000			-13.431			-4.477
109901.000			-13.430			-4.477
110000.000			-13.430			-4.477
110100.000			-13.430			-4.477
110201.000			-13.430			-4.477
110301.000			-13.430			-4.477
110401.000			-13.428			-4.476
110501.000			-13.430			-4.477
110600.000			-13.430			-4.477
110700.000			-13.429			-4.476
110801.000			-13.429			-4.476
110900.000			-13.430			-4.477
111000.000			-13.429			-4.476
111101.000			-13.428			-4.476
111201.000			-13.429			-4.476
111301.000			-13.427			-4.476
111401.000			-13.426			-4.475
111500.000			-13.427			-4.476
111601.000			-13.428			-4.476
111700.000			-13.428			-4.476
111800.000			-13.428			-4.476
111901.000			-13.428			-4.476
112001.000			-13.426			-4.475
112101.000			-13.426			-4.475
112201.000			-13.427			-4.476
112300.000			-13.427			-4.476
112400.000			-13.427			-4.476
112501.000			-13.427			-4.476
112600.000			-13.427			-4.476
112700.000			-13.426			-4.475
112802.000			-13.426			-4.475
112901.000			-13.426			-4.475
113000.000			-13.426			-4.475
113101.000			-13.425			-4.475
113200.000			-13.426			-4.475
113300.000			-13.426			-4.475
113401.000			-13.426			-4.475
113500.000			-13.425			-4.475
113600.000			-13.426			-4.475
113702.000			-13.426			-4.475
113801.000			-13.426			-4.475
113900.000			-13.425			-4.475
114001.000			-13.425			-4.475
114100.000			-13.424			-4.475
114200.000			-13.425			-4.475
114301.000			-13.425			-4.475
114400.000			-13.425			-4.475
114501.000			-13.424			-4.475
114602.000			-13.424			-4.475
114700.000			-13.423			-4.474
114801.000			-13.422			-4.474
114900.000			-13.423			-4.474
115000.000			-13.422			-4.474
115101.000			-13.422			-4.474
115200.000			-13.422			-4.474
115301.000			-13.422			-4.474
115402.000			-13.423			-4.474
115500.000			-13.423			-4.474
115600.000			-13.422			-4.474
115701.000			-13.421			-4.474
115800.000			-13.420			-4.473
115900.000			-13.420			-4.473
116001.000			-13.420			-4.473
116101.000			-13.422			-4.474
116201.000			-13.423			-4.474
116301.000			-13.422			-4.474
116400.000			-13.420			-4.473
116500.000			-13.420			-4.473
116601.000			-13.420			-4.473
116700.000			-13.420			-4.473
116800.000			-13.420			-4.473
116902.000			-13.420			-4.473
117001.000			-13.420			-4.473
117100.000			-13.420			-4.473
117201.000			-13.419			-4.473
117300.000			-13.419			-4.473
117400.000			-13.420			-4.473
117501.000			-13.419			-4.473
117600.000			-13.419			-4.473
117700.000			-13.419			-4.473
117802.000			-13.419			-4.473
117901.000			-13.419			-4.473
118001.000			-13.419			-4.473
118100.000			-13.419			-4.473
118200.000			-13.418			-4.473
118301.000			-13.418			-4.473
118400.000			-13.418			-4.473
118500.000			-13.416			-4.472
118602.000			-13.417			-4.472
118701.000			-13.417			-4.472
118800.000			-13.417			-4.472
118901.000			-13.418			-4.473
119000.000			-13.417			-4.472
119100.000			-13.416			-4.472
119201.000			-13.416			-4.472
119300.000			-13.416			-4.472
119400.000			-13.416			-4.472
119502.000			-13.415			-4.472
119601.000			-13.416			-4.472
119700.000			-13.417			-4.472
119801.000			-13.416			-4.472
119900.000			-13.415			-4.472
120000.000			-13.415			-4.472
120101.000			-13.415			-4.472
120200.000			-13.414			-4.471
120301.000			-13.413			-4.471
120402.000			-13.414			-4.471
120500.000			-13.415			-4.472
120600.000			-13.414			-4.471
120701.000			-13.414			-4.471
120800.000			-13.415			-4.472
120900.000			-13.414			-4.471
121001.000			-13.414			-4.471
121101.000			-13.414			-4.471
121202.000			-13.414			-4.471
121301.000			-13.414			-4.471
121400.000			-13.413			-4.471
121501.000			-13.415			-4.472
121600.000			-13.414			-4.471
121700.000			-13.414			-4.471
121801.000			-13.413			-4.471
121901.000			-13.413			-4.471
122001.000			-13.413			-4.471
122102.000			-13.413			-4.471
122200.000			-13.413			-4.471
122300.000			-13.413			-4.471
122401.000			-13.413			-4.471
122500.000			-13.412			-4.471
122600.000			-13.412			-4.471
122701.000			-13.412			-4.471
122801.000			-13.412			-4.471
122901.000			-13.412			-4.471
123001.000			-13.412			-4.471
123100.000			-13.411			-4.470
123200.000			-13.411			-4.470
123301.000			-13.411			-4.470
123400.000			-13.411			-4.470
123500.000			-13.412			-4.471
123602.000			-13.410			-4.470
123701.000			-13.410			-4.470
123800.000			-13.410			-4.470
123901.000			-13.410			-4.470
124000.000			-13.410			-4.470
124100.000			-13.409			-4.470
124201.000			-13.409			-4.470
124300.000			-13.409			-4.470
124402.000			-13.409			-4.470
124501.000			-13.409			-4.470
124600.000			-13.409			-4.470
124701.000			-13.409			-4.470
124800.000			-13.409			-4.470
124900.000			-13.409			-4.470
125001.000			-13.409			-4.470
125100.000			-13.409			-4.470
125200.000			-13.407			-4.469
125302.000			-13.407			-4.469
125401.000			-13.408			-4.469
125500.000			-13.408			-4.469
125601.000			-13.408			-4.469
125700.000			-13.407			-4.469
125800.000			-13.407			-4.469
125901.000			-13.406			-4.469
126000.000			-13.407			-4.469
126101.000			-13.407			-4.469
126202.000			-13.406			-4.469
126300.000			-13.406			-4.469
126400.000			-13.406			-4.469
126501.000			-13.407			-4.469
126600.000			-13.406			-4.469
126700.000			-13.406			-4.469
126801.000			-13.405			-4.468
126901.000			-13.405			-4.468
127001.000			-13.404			-4.468
127101.000			-13.405			-4.468
127200.000			-13.406			-4.469
127300.000			-13.405			-4.468
127401.000			-13.405			-4.468
127500.000			-13.405			-4.468
127601.000			-13.405			-4.468
127700.000			-13.404			-4.468
127801.000			-13.404			-4.468
127902.000			-13.403			-4.468
128000.000			-13.403			-4.468
128100.000			-13.404			-4.468
128201.000			-13.404			-4.468
128300.000			-13.403			-4.468
128400.000			-13.402			-4.467
128501.000			-13.402			-4.467
128601.000			-13.403			-4.468
128701.000			-13.403			-4.468
128801.000			-13.403			-4.468
128900.000			-13.402			-4.467
129000.000			-13.402			-4.467
129101.000			-13.402			-4.467
129200.000			-13.402			-4.467
129300.000			-13.403			-4.468
129402.000			-13.402			-4.467
129501.000			-13.402			-4.467
129600.000			-13.402			-4.467
129701.000			-13.401			-4.467
129800.000			-13.401			-4.467
129900.000			-13.402			-4.467
130001.000			-13.401			-4.467
130100.000			-13.401			-4.467
130200.000			-13.400			-4.467
130302.000			-13.400			-4.467
130401.000			-13.400			-4.467
130500.000			-13.401			-4.467
130601.000			-13.401			-4.467
130700.000			-13.401			-4.467
130801.000			-13.399			-4.466
130900.000			-13.399			-4.466
131000.000			-13.399			-4.466
131102.000			-13.399			-4.466
131201.000			-13.399			-4.466
131300.000			-13.400			-4.467
131401.000			-13.399			-4.466
131500.000			-13.399			-4.466
131600.000			-13.399			-4.466
131701.000			-13.400			-4.467
131800.000			-13.398			-4.466
131900.000			-13.398			-4.466
132002.000			-13.398			-4.466
132101.000			-13.398			-4.466
132201.000			-13.399			-4.466
132301.000			-13.398			-4.466
132400.000			-13.397			-4.466
132500.000			-13.398			-4.466
132601.000			-13.396			-4.465
132700.000			-13.396			-4.465
132800.000			-13.397			-4.466
132901.000			-13.397			-4.466
133001.000			-13.396			-4.465
133101.000			-13.396			-4.465
133201.000			-13.397			-4.466
133300.000			-13.397			-4.466
133400.000			-13.397			-4.466
133501.000			-13.397			-4.466
133600.000			-13.396			-4.465
133700.000			-13.396			-4.465
133801.000			-13.395			-4.465
133901.000			-13.396			-4.465
134002.000			-13.396			-4.465
134101.000			-13.397			-4.466
134200.000			-13.395			-4.465
134301.000			-13.395			-4.465
134400.000			-13.395			-4.465
134500.000			-13.395			-4.465
134601.000			-13.396			-4.465
134700.000			-13.395			-4.465
134801.000			-13.396			-4.465
134902.000			-13.394			-4.465
135001.000			-13.394			-4.465
135100.000			-13.394			-4.465
135201.000			-13.393			-4.464
135300.000			-13.394			-4.465
135400.000			-13.393			-4.464
135501.000			-13.393			-4.464
135600.000			-13.394			-4.465
135700.000			-13.394			-4.465
135802.000			-13.393			-4.464
135901.000			-13.392			-4.464
136000.000			-13.392			-4.464
136101.000			-13.393			-4.464
136200.000			-13.392			-4.464
136300.000			-13.392			-4.464
136401.000			-13.393			-4.464
136500.000			-13.393			-4.464
136600.000			-13.392			-4.464
136702.000			-13.391			-4.464
136801.000			-13.392			-4.464
136900.000			-13.391			-4.464
137001.000			-13.392			-4.464
137100.000			-13.392			-4.464
137201.000			-13.392			-4.464
137300.000			-13.392			-4.464
137400.000			-13.392			-4.464
137501.000			-13.391			-4.464
137601.000			-13.391			-4.464
137701.000			-13.391			-4.464
137802.000			-13.391			-4.464
137900.000			-13.390			-4.463
138000.000			-13.390			-4.463
138101.000			-13.390			-4.463
138200.000			-13.390			-4.463
138300.000			-13.391			-4.464
138401.000			-13.390			-4.463
138501.000			-13.390			-4.463
138601.000			-13.390			-4.463
138702.000			-13.389			-4.463
138800.000			-13.389			-4.463
138900.000			-13.389			-4.463
139001.000			-13.389			-4.463
139100.000			-13.389			-4.463
139200.000			-13.390			-4.463
139301.000			-13.388			-4.463
139400.000			-13.388			-4.463
139501.000			-13.389			-4.463
139602.000			-13.389			-4.463
139701.000			-13.389			-4.463
139800.000			-13.388			-4.463
139901.000			-13.388			-4.463
140000.000			-13.388			-4.463
140100.000			-13.388			-4.463
140201.000			-13.389			-4.463
140300.000			-13.388			-4.463
140401.000			-13.387			-4.462
140501.000			-13.387			-4.462
140601.000			-13.387			-4.462
140701.000			-13.387			-4.462
140800.000			-13.387			-4.462
140900.000			-13.387			-4.462
141001.000			-13.388			-4.463
141100.000			-13.387			-4.462
141200.000			-13.387			-4.462
141301.000			-13.387			-4.462
141401.000			-13.387			-4.462
141501.000			-13.386			-4.462
141602.000			-13.386			-4.462
141700.000			-13.386			-4.462
141800.000			-13.386			-4.462
141901.000			-13.386			-4.462
142000.000			-13.386			-4.462
142100.000			-13.384			-4.461
142201.000			-13.384			-4.461
142300.000			-13.385			-4.462
142401.000			-13.385			-4.462
142502.000			-13.385			-4.462
142600.000			-13.384			-4.461
142700.000			-13.384			-4.461
142801.000			-13.385			-4.462
142900.000			-13.385			-4.462
143000.000			-13.386			-4.462
143101.000			-13.385			-4.462
143200.000			-13.385			-4.462
143301.000			-13.384			-4.461
143402.000			-13.384			-4.461
143500.000			-13.383			-4.461
143601.000			-13.383			-4.461
143700.000			-13.384			-4.461
143800.000			-13.384			-4.461
143901.000			-13.384			-4.461
144000.000			-13.384			-4.461
144100.000			-13.383			-4.461
144202.000			-13.384			-4.461
144301.000			-13.383			-4.461
144401.000			-13.382			-4.461
144501.000			-13.382			-4.461
144600.000			-13.382			-4.461
144700.000			-13.382			-4.461
144801.000			-13.382			-4.461
144900.000			-13.383			-4.461
145000.000			-13.382			-4.461
145102.000			-13.382			-4.461
145201.000			-13.382			-4.461
145301.000			-13.382			-4.461
145401.000			-13.381			-4.460
145500.000			-13.381			-4.460
145600.000			-13.381			-4.460
145701.000			-13.381			-4.460
145800.000			-13.382			-4.461
145900.000			-13.381			-4.460
146001.000			-13.380			-4.460
146101.000			-13.381			-4.460
146201.000			-13.381			-4.460
146301.000			-13.381			-4.460
146400.000			-13.380			-4.460
146500.000			-13.380			-4.460
146601.000			-13.379			-4.460
146700.000			-13.380			-4.460
146801.000			-13.380			-4.460
146900.000			-13.379			-4.460
147001.000			-13.379			-4.460
147102.000			-13.380			-4.460
147200.000			-13.379			-4.460
147300.000			-13.378			-4.459
147401.000			-13.378			-4.459
147500.000			-13.378			-4.459
147600.000			-13.378			-4.459
147701.000			-13.379			-4.460
147800.000			-13.379			-4.460
147901.000			-13.379			-4.460
148002.000			-13.379			-4.460
148101.000			-13.378			-4.459
148200.000			-13.378			-4.459
148301.000			-13.379			-4.460
148400.000			-13.378			-4.459
148500.000			-13.378			-4.459
148601.000			-13.379			-4.460
148700.000			-13.377			-4.459
148800.000			-13.377			-4.459
148902.000			-13.376			-4.459
149001.000			-13.376			-4.459
149100.000			-13.377			-4.459
149201.000			-13.376			-4.459
149300.000			-13.377			-4.459
149400.000			-13.377			-4.459
149501.000			-13.376			-4.459
149600.000			-13.376			-4.459
149700.000			-13.376			-4.459
149802.000			-13.377			-4.459
149901.000			-13.376			-4.459
150002.000			-13.375			-4.458
150100.000			-13.375			-4.458
150200.000			-13.375			-4.458
150301.000			-13.375			-4.458
150400.000			-13.375			-4.458
150500.000			-13.374			-4.458
150601.000			-13.374			-4.458
150700.000			-13.375			-4.458
150801.000			-13.375			-4.458
150902.000			-13.375			-4.458
151000.000			-13.375			-4.458
151100.000			-13.375			-4.458
151201.000			-13.375			-4.458
151300.000			-13.374			-4.458
151400.000			-13.374			-4.458
151501.000			-13.373			-4.458
151600.000			-13.374			-4.458
151701.000			-13.373			-4.458
151802.000			-13.374			-4.458
151901.000			-13.373			-4.458
152000.000			-13.373			-4.458
152101.000			-13.374			-4.458
152200.000			-13.373			-4.458
152300.000			-13.373			-4.458
152401.000			-13.372			-4.457
152500.000			-13.372			-4.457
152601.000			-13.372			-4.457
152702.000			-13.373			-4.458
152801.000			-13.372			-4.457
152900.000			-13.373			-4.458
153001.000			-13.373			-4.458
153100.000			-13.372			-4.457
153201.000			-13.372			-4.457
153300.000			-13.372			-4.457
153400.000			-13.372			-4.457
153502.000			-13.372			-4.457
153601.000			-13.371			-4.457
153700.000			-13.371			-4.457
153801.000			-13.371			-4.457
153900.000			-13.371			-4.457
154000.000			-13.371			-4.457
154101.000			-13.370			-4.457
154200.000			-13.370			-4.457
154300.000			-13.371			-4.457
154402.000			-13.370			-4.457
154501.000			-13.370			-4.457
154601.000			-13.370			-4.457
154701.000			-13.371			-4.457
154800.000			-13.371			-4.457
154900.000			-13.370			-4.457
155001.000			-13.370			-4.457
155100.000			-13.369			-4.456
155200.000			-13.369			-4.456
155301.000			-13.370			-4.457
155401.000			-13.370			-4.457
155501.000			-13.369			-4.456
155601.000			-13.368			-4.456
155700.000			-13.369			-4.456
155800.000			-13.369			-4.456
155901.000			-13.368			-4.456
156000.000			-13.368			-4.456
156100.000			-13.368			-4.456
156201.000			-13.369			-4.456
156301.000			-13.368			-4.456
156402.000			-13.368			-4.456
156501.000			-13.368			-4.456
156600.000			-13.368			-4.456
156701.000			-13.367			-4.456
156800.000			-13.368			-4.456
156900.000			-13.367			-4.456
157001.000			-13.366			-4.455
157100.000			-13.366			-4.455
157200.000			-13.366			-4.455
157302.000			-13.365			-4.455
157401.000			-13.367			-4.456
157500.000			-13.368			-4.456
157601.000			-13.366			-4.455
157700.000			-13.366			-4.455
157800.000			-13.367			-4.456
157901.000			-13.366			-4.455
158000.000			-13.365			-4.455
158100.000			-13.366			-4.455
158202.000			-13.367			-4.456
158301.000			-13.366			-4.455
158401.000			-13.367			-4.456
158501.000			-13.366			-4.455
158600.000			-13.366			-4.455
158700.000			-13.365			-4.455
158801.000			-13.365			-4.455
158900.000			-13.365			-4.455
159000.000			-13.366			-4.455
159101.000			-13.366			-4.455
159201.000			-13.364			-4.455
159301.000			-13.364			-4.455
159401.000			-13.366			-4.455
159500.000			-13.366			-4.455
159601.000			-13.366			-4.455
159700.000			-13.363			-4.454
159800.000			-13.364			-4.455
159901.000			-13.365			-4.455
160000.000			-13.364			-4.455
160100.000			-13.364			-4.455
160202.000			-13.363			-4.454
160301.000			-13.363			-4.454
160400.000			-13.364			-4.455
160501.000			-13.363			-4.454
160600.000			-13.363			-4.454
160700.000			-13.364			-4.455
160801.000			-13.363			-4.454
160900.000			-13.362			-4.454
161001.000			-13.362			-4.454
161102.000			-13.363			-4.454
161201.000			-13.363			-4.454
161300.000			-13.362			-4.454
161401.000			-13.362			-4.454
161500.000			-13.363			-4.454
161600.000			-13.362			-4.454
161701.000			-13.362			-4.454
161800.000			-13.361			-4.454
161901.000			-13.363			-4.454
162002.000			-13.363			-4.454
162101.000			-13.363			-4.454
162200.000			-13.362			-4.454
162301.000			-13.362			-4.454
162400.000			-13.361			-4.454
162500.000			-13.361			-4.454
162601.000			-13.361			-4.454
162700.000			-13.361			-4.454
162802.000			-13.361			-4.454
162901.000			-13.361			-4.454
163001.000			-13.361			-4.454
163101.000			-13.361			-4.454
163200.000			-13.361			-4.454
163300.000			-13.360			-4.453
163401.000			-13.360			-4.453
163500.000			-13.361			-4.454
163600.000			-13.361			-4.454
163701.000			-13.360			-4.453
163801.000			-13.361			-4.454
163901.000			-13.361			-4.454
164001.000			-13.360			-4.453
164100.000			-13.360			-4.453
164200.000			-13.360			-4.453
164301.000			-13.361			-4.454
164400.000			-13.360			-4.453
164500.000			-13.359			-4.453
164601.000			-13.359			-4.453
164701.000			-13.359			-4.453
164801.000			-13.359			-4.453
164901.000			-13.359			-4.453
165000.000			-13.359			-4.453
165100.000			-13.359			-4.453
165201.000			-13.359			-4.453
165300.000			-13.358			-4.453
165400.000			-13.359			-4.453
165501.000			-13.359			-4.453
165601.000			-13.358			-4.453
165701.000			-13.357			-4.452
165802.000			-13.357			-4.452
165900.000			-13.358			-4.453
166001.000			-13.358			-4.453
166100.000			-13.358			-4.453
166200.000			-13.358			-4.453
166301.000			-13.358			-4.453
166400.000			-13.358			-4.453
166500.000			-13.359			-4.453
166602.000			-13.358			-4.453
166701.000			-13.357			-4.452
166801.000			-13.356			-4.452
166901.000			-13.356			-4.452
167000.000			-13.357			-4.452
167100.000			-13.357			-4.452
167201.000			-13.357			-4.452
167300.000			-13.356			-4.452
167400.000			-13.356			-4.452
167501.000			-13.357			-4.452
167601.000			-13.357			-4.452
167701.000			-13.355			-4.452
167801.000			-13.356			-4.452
167900.000			-13.356			-4.452
168000.000			-13.356			-4.452
168101.000			-13.356			-4.452
168200.000			-13.355			-4.452
168300.000			-13.355			-4.452
168401.000			-13.355			-4.452
168501.000			-13.355			-4.452
168601.000			-13.354			-4.451
168702.000			-13.355			-4.452
168800.000			-13.355			-4.452
168900.000			-13.355			-4.452
169001.000			-13.354			-4.451
169100.000			-13.354			-4.451
169201.000			-13.353			-4.451
169300.000			-13.354			-4.451
169400.000			-13.354			-4.451
169502.000			-13.354			-4.451
169601.000			-13.354			-4.451
169701.000			-13.354			-4.451
169801.000			-13.354			-4.451
169900.000			-13.353			-4.451
170000.000			-13.354			-4.451
170101.000			-13.354			-4.451
170200.000			-13.354			-4.451
170300.000			-13.354			-4.451
170401.000			-13.353			-4.451
170501.000			-13.352			-4.451
170601.000			-13.352			-4.451
170701.000			-13.353			-4.451
170800.000			-13.354			-4.451
170900.000			-13.354			-4.451
171001.000			-13.352			-4.451
171100.000			-13.352			-4.451
171200.000			-13.352			-4.451
171302.000			-13.352			-4.451
171401.000			-13.352			-4.451
171501.000			-13.352			-4.451
171601.000			-13.351			-4.450
171700.000			-13.352			-4.451
171800.000			-13.352			-4.451
171901.000			-13.352			-4.451
172000.000			-13.352			-4.451
172100.000			-13.351			-4.450
172201.000			-13.352			-4.451
172301.000			-13.352			-4.451
172402.000			-13.351			-4.450
172500.000			-13.351			-4.450
172600.000			-13.351			-4.450
172701.000			-13.351			-4.450
172800.000			-13.351			-4.450
172900.000			-13.351			-4.450
173001.000			-13.351			-4.450
173100.000			-13.352			-4.451
173201.000			-13.351			-4.450
173302.000			-13.350			-4.450
173400.000			-13.349			-4.450
173500.000			-13.350			-4.450
173601.000			-13.351			-4.450
173700.000			-13.350			-4.450
173800.000			-13.350			-4.450
173901.000			-13.350			-4.450
174000.000			-13.349			-4.450
174101.000			-13.350			-4.450
174202.000			-13.349			-4.450
174301.000			-13.349			-4.450
174400.000			-13.349			-4.450
174501.000			-13.349			-4.450
174600.000			-13.350			-4.450
174700.000			-13.350			-4.450
174801.000			-13.349			-4.450
174900.000			-13.348			-4.449
175000.000			-13.347			-4.449
175102.000			-13.348			-4.449
175201.000			-13.348			-4.449
175300.000			-13.348			-4.449
175401.000			-13.349			-4.450
175500.000			-13.348			-4.449
175601.000			-13.348			-4.449
175700.000			-13.348			-4.449
175800.000			-13.349			-4.450
175901.000			-13.348			-4.449
176001.000			-13.347			-4.449
176101.000			-13.347			-4.449
176202.000			-13.347			-4.449
176300.000			-13.347			-4.449
176400.000			-13.346			-4.449
176501.000			-13.346			-4.449
176600.000			-13.346			-4.449
176700.000			-13.346			-4.449
176801.000			-13.347			-4.449
176900.000			-13.347			-4.449
177001.000			-13.347			-4.449
177102.000			-13.347			-4.449
177200.000			-13.347			-4.449
177300.000			-13.346			-4.449
177401.000			-13.346			-4.449
177500.000			-13.345			-4.448
177600.000			-13.346			-4.449
177701.000			-13.346			-4.449
177800.000			-13.345			-4.448
177900.000			-13.346			-4.449
178002.000			-13.346			-4.449
178101.000			-13.345			-4.448
178200.000			-13.345			-4.448
178301.000			-13.345			-4.448
178400.000			-13.345			-4.448
178500.000			-13.345			-4.448
178601.000			-13.345			-4.448
178700.000			-13.345			-4.448
178801.000			-13.345			-4.448
178901.000			-13.345			-4.448
179001.000			-13.346			-4.449
179102.000			-13.345			-4.448
179200.000			-13.344			-4.448
179300.000			-13.344			-4.448
179401.000			-13.344			-4.448
179500.000			-13.344			-4.448
179600.000			-13.345			-4.448
179701.000			-13.345			-4.448
179800.000			-13.344			-4.448
179901.000			-13.345			-4.448
180002.000			-13.344			-4.448
180101.000			-13.343			-4.448
180200.000			-13.344			-4.448
180301.000			-13.343			-4.448
180400.000			-13.344			-4.448
180500.000			-13.343			-4.448
180601.000			-13.343			-4.448
180700.000			-13.342			-4.447
180801.000			-13.341			-4.447
180902.000			-13.342			-4.447
181001.000			-13.343			-4.448
181100.000			-13.343			-4.448
181201.000			-13.343			-4.448
181300.000			-13.342			-4.447
181400.000			-13.342			-4.447
181501.000			-13.342			-4.447
181600.000			-13.342			-4.447
181701.000			-13.342			-4.447
181802.000			-13.343			-4.448
181901.000			-13.342			-4.447
182001.000			-13.342			-4.447
182100.000			-13.343			-4.448
182200.000			-13.342			-4.447
182301.000			-13.341			-4.447
182400.000			-13.341			-4.447
182500.000			-13.340			-4.447
182602.000			-13.340			-4.447
182701.000			-13.341			-4.447
182801.000			-13.341			-4.447
182901.000			-13.340			-4.447
183000.000			-13.340			-4.447
183100.000			-13.341			-4.447
183201.000			-13.340			-4.447
183300.000			-13.341			-4.447
183400.000			-13.340			-4.447
183502.000			-13.339			-4.446
183601.000			-13.341			-4.447
183701.000			-13.340			-4.447
183801.000			-13.340			-4.447
183900.000			-13.339			-4.446
184000.000			-13.340			-4.447
184101.000			-13.340			-4.447
184200.000			-13.339			-4.446
184300.000			-13.339			-4.446
184401.000			-13.338			-4.446
184501.000			-13.338			-4.446
184601.000			-13.338			-4.446
184701.000			-13.339			-4.446
184800.000			-13.338			-4.446
184900.000			-13.338			-4.446
185001.000			-13.338			-4.446
185100.000			-13.338			-4.446
185201.000			-13.338			-4.446
185300.000			-13.337			-4.446
185401.000			-13.337			-4.446
185502.000			-13.337			-4.446
185601.000			-13.337			-4.446
185700.000			-13.338			-4.446
185801.000			-13.338			-4.446
185900.000			-13.337			-4.446
186000.000			-13.336			-4.445
186101.000			-13.336			-4.445
186200.000			-13.336			-4.445
186300.000			-13.337			-4.446
186402.000			-13.337			-4.446
186501.000			-13.337			-4.446
186600.000			-13.337			-4.446
186701.000			-13.336			-4.445
186800.000			-13.335			-4.445
186900.000			-13.336			-4.445
187001.000			-13.336			-4.445
187100.000			-13.337			-4.446
187200.000			-13.336			-4.445
187302.000			-13.337			-4.446
187401.000			-13.337			-4.446
187501.000			-13.337			-4.446
187601.000			-13.336			-4.445
187700.000			-13.336			-4.445
187800.000			-13.337			-4.446
187901.000			-13.336			-4.445
188000.000			-13.336			-4.445
188100.000			-13.335			-4.445
188201.000			-13.334			-4.445
188301.000			-13.334			-4.445
188402.000			-13.335			-4.445
188501.000			-13.335			-4.445
188600.000			-13.335			-4.445
188701.000			-13.336			-4.445
188800.000			-13.336			-4.445
188900.000			-13.336			-4.445
189001.000			-13.335			-4.445
189100.000			-13.335			-4.445
189200.000			-13.336			-4.445
189302.000			-13.335			-4.445
189401.000			-13.335			-4.445
189500.000			-13.335			-4.445
189601.000			-13.335			-4.445
189700.000			-13.335			-4.445
189800.000			-13.334			-4.445
189901.000			-13.334			-4.445
190000.000			-13.334			-4.445
190100.000			-13.334			-4.445
190202.000			-13.333			-4.444
190301.000			-13.333			-4.444
190401.000			-13.333			-4.444
190501.000			-13.332			-4.444
190600.000			-13.333			-4.444
190700.000			-13.334			-4.445
190801.000			-13.334			-4.445
190900.000			-13.333			-4.444
191000.000			-13.333			-4.444
191102.000			-13.333			-4.444
191201.000			-13.333			-4.444
191301.000			-13.332			-4.444
191401.000			-13.332			-4.444
191500.000			-13.333			-4.444
191601.000			-13.333			-4.444
191700.000			-13.332			-4.444
191800.000			-13.331			-4.444
191901.000			-13.332			-4.444
192000.000			-13.333			-4.444
192101.000			-13.332			-4.444
192202.000			-13.331			-4.444
192300.000			-13.332			-4.444
192400.000			-13.331			-4.444
192501.000			-13.331			-4.444
192600.000			-13.331			-4.444
192700.000			-13.331			-4.444
192801.000			-13.331			-4.444
192900.000			-13.330			-4.443
193001.000			-13.330			-4.443
193102.000			-13.331			-4.444
193201.000			-13.331			-4.444
193300.000			-13.331			-4.444
193401.000			-13.330			-4.443
193500.000			-13.332			-4.444
193600.000			-13.331			-4.444
193701.000			-13.331			-4.444
193800.000			-13.330			-4.443
193901.000			-13.330			-4.443
194002.000			-13.329			-4.443
194101.000			-13.331			-4.444
194200.000			-13.330			-4.443
194301.000			-13.330			-4.443
194400.000			-13.330			-4.443
194500.000			-13.330			-4.443
194601.000			-13.329			-4.443
194700.000			-13.328			-4.443
194801.000			-13.328			-4.443
194901.000			-13.330			-4.443
195001.000			-13.329			-4.443
195101.000			-13.329			-4.443
195200.000			-13.329			-4.443
195300.000			-13.329			-4.443
195401.000			-13.328			-4.443
195500.000			-13.328			-4.443
195600.000			-13.329			-4.443
195701.000			-13.328			-4.443
195801.000			-13.328			-4.443
195901.000			-13.328			-4.443
196002.000			-13.328			-4.443
196100.000			-13.328			-4.443
196200.000			-13.328			-4.443
196301.000			-13.327			-4.442
196400.000			-13.328			-4.443
196500.000			-13.327			-4.442
196601.000			-13.327			-4.442
196700.000			-13.327			-4.442
196801.000			-13.327			-4.442
196902.000			-13.327			-4.442
197000.000			-13.327			-4.442
197100.000			-13.328			-4.443
197201.000			-13.326			-4.442
197300.000			-13.327			-4.442
197400.000			-13.327			-4.442
197501.000			-13.326			-4.442
197600.000			-13.327			-4.442
197701.000			-13.327			-4.442
197802.000			-13.326			-4.442
197901.000			-13.326			-4.442
198001.000			-13.325			-4.442
198100.000			-13.326			-4.442
198200.000			-13.327			-4.442
198301.000			-13.327			-4.442
198400.000			-13.326			-4.442
198500.000			-13.326			-4.442
198601.000			-13.325			-4.442
198701.000			-13.325			-4.442
198801.000			-13.325			-4.442
198901.000			-13.325			-4.442
199000.000			-13.325			-4.442
199100.000			-13.325			-4.442
199201.000			-13.326			-4.442
199300.000			-13.326			-4.442
199400.000			-13.325			-4.442
199501.000			-13.324			-4.441
199600.000			-13.324			-4.441
199701.000			-13.324			-4.441
199802.000			-13.324			-4.441
199900.000			-13.324			-4.441
200000.000			-13.324			-4.441
200101.000			-13.325			-4.442
200200.000			-13.325			-4.442
200300.000			-13.325			-4.442
200401.000			-13.324			-4.441
200500.000			-13.325			-4.442
200601.000			-13.324			-4.441
200702.000			-13.324			-4.441
200800.000			-13.324			-4.441
200900.000			-13.324			-4.441
201001.000			-13.324			-4.441
201100.000			-13.323			-4.441
201201.000			-13.323			-4.441
201300.000			-13.322			-4.441
201400.000			-13.323			-4.441
201502.000			-13.324			-4.441
201601.000			-13.324			-4.441
201700.000			-13.324			-4.441
201801.000			-13.323			-4.441
201900.000			-13.323			-4.441
202000.000			-13.324			-4.441
202101.000			-13.324			-4.441
202200.000			-13.323			-4.441
202300.000			-13.323			-4.441
202402.000			-13.323			-4.441
202501.000			-13.323			-4.441
202600.000			-13.323			-4.441
202701.000			-13.322			-4.441
202800.000			-13.322			-4.441
202900.000			-13.322			-4.441
203001.000			-13.321			-4.440
203100.000			-13.321			-4.440
203201.000			-13.322			-4.441
203302.000			-13.321			-4.440
203401.000			-13.322			-4.441
203500.000			-13.322			-4.441
203601.000			-13.321			-4.440
203700.000			-13.321			-4.440
203800.000			-13.322			-4.441
203901.000			-13.322			-4.441
204000.000			-13.322			-4.441
204101.000			-13.321			-4.440
204202.000			-13.321			-4.440
204301.000			-13.321			-4.440
204401.000			-13.321			-4.440
204500.000			-13.321			-4.440
204600.000			-13.321			-4.440
204701.000			-13.321			-4.440
204800.000			-13.321			-4.440
204900.000			-13.321			-4.440
205002.000			-13.320			-4.440
205101.000			-13.320			-4.440
205201.000			-13.320			-4.440
205301.000			-13.320			-4.440
205400.000			-13.319			-4.440
205500.000			-13.320			-4.440
205601.000			-13.320			-4.440
205700.000			-13.320			-4.440
205800.000			-13.320			-4.440
205902.000			-13.320			-4.440
206001.000			-13.319			-4.440
206101.000			-13.319			-4.440
206201.000			-13.319			-4.440
206300.000			-13.320			-4.440
206400.000			-13.319			-4.440
206501.000			-13.319			-4.440
206600.000			-13.320			-4.440
206700.000			-13.319			-4.440
206802.000			-13.319			-4.440
206901.000			-13.320			-4.440
207001.000			-13.319			-4.440
207101.000			-13.319			-4.440
207200.000			-13.318			-4.439
207300.000			-13.318			-4.439
207401.000			-13.319			-4.440
207500.000			-13.319			-4.440
207601.000			-13.319			-4.440
207700.000			-13.319			-4.440
207801.000			-13.319			-4.440
207902.000			-13.317			-4.439
208000.000			-13.317			-4.439
208100.000			-13.318			-4.439
208201.000			-13.319			-4.440
208300.000			-13.319			-4.440
208400.000			-13.318			-4.439
208501.000			-13.318			-4.439
208600.000			-13.317			-4.439
208701.000			-13.317			-4.439
208802.000			-13.317			-4.439
208901.000			-13.317			-4.439
209000.000			-13.317			-4.439
209101.000			-13.318			-4.439
209200.000			-13.318			-4.439
209300.000			-13.318			-4.439
209401.000			-13.318			-4.439
209500.000			-13.317			-4.439
209601.000			-13.316			-4.439
209702.000			-13.317			-4.439
209801.000			-13.317			-4.439
209900.000			-13.316			-4.439
210001.000			-13.317			-4.439
210100.000			-13.317			-4.439
210200.000			-13.317			-4.439
210301.000			-13.316			-4.439
210400.000			-13.316			-4.439
210501.000			-13.316			-4.439
210602.000			-13.315			-4.438
210700.000			-13.315			-4.438
210801.000			-13.316			-4.439
210900.000			-13.316			-4.439
211000.000			-13.316			-4.439
211101.000			-13.315			-4.438
211200.000			-13.315			-4.438
211300.000			-13.314			-4.438
211402.000			-13.314			-4.438
211501.000			-13.314			-4.438
211600.000			-13.315			-4.438
211701.000			-13.316			-4.439
211800.000			-13.315			-4.438
211900.000			-13.315			-4.438
212001.000			-13.316			-4.439
212100.000			-13.316			-4.439
212200.000			-13.315			-4.438
212302.000			-13.315			-4.438
212401.000			-13.315			-4.438
212500.000			-13.314			-4.438
212601.000			-13.314			-4.438
212700.000			-13.315			-4.438
212800.000			-13.315			-4.438
212901.000			-13.314			-4.438
213000.000			-13.315			-4.438
213100.000			-13.315			-4.438
213202.000			-13.314			-4.438
213301.000			-13.314			-4.438
213400.000			-13.313			-4.438
213501.000			-13.313			-4.438
213600.000			-13.313			-4.438
213700.000			-13.314			-4.438
213801.000			-13.313			-4.438
213900.000			-13.313			-4.438
214001.000			-13.313			-4.438
214101.000			-13.313			-4.438
214201.000			-13.313			-4.438
214301.000			-13.313			-4.438
214400.000			-13.312			-4.437
214500.000			-13.313			-4.438
214601.000			-13.313			-4.438
214700.000			-13.312			-4.437
214800.000			-13.312			-4.437
214902.000			-13.312			-4.437
215001.000			-13.312			-4.437
215101.000			-13.313			-4.438
215201.000			-13.312			-4.437
215300.000			-13.312			-4.437
215400.000			-13.312			-4.437
215501.000			-13.312			-4.437
215600.000			-13.312			-4.437
215700.000			-13.312			-4.437
215802.000			-13.312			-4.437
215901.000			-13.312			-4.437
216001.000			-13.312			-4.437
216101.000			-13.311			-4.437
216200.000			-13.311			-4.437
216300.000			-13.311			-4.437
216401.000			-13.310			-4.437
216500.000			-13.310			-4.437
216600.000			-13.310			-4.437
216702.000			-13.311			-4.437
216801.000			-13.311			-4.437
216900.000			-13.310			-4.437
217001.000			-13.310			-4.437
217100.000			-13.311			-4.437
217201.000			-13.310			-4.437
217300.000			-13.309			-4.436
217400.000			-13.309			-4.436
217501.000			-13.310			-4.437
217601.000			-13.310			-4.437
217701.000			-13.310			-4.437
217801.000			-13.309			-4.436
217900.000			-13.309			-4.436
218000.000			-13.309			-4.436
218101.000			-13.309			-4.436
218200.000			-13.309			-4.436
218300.000			-13.309			-4.436
218401.000			-13.309			-4.436
218501.000			-13.308			-4.436
218601.000			-13.307			-4.436
218702.000			-13.308			-4.436
218800.000			-13.310			-4.437
218900.000			-13.310			-4.437
219001.000			-13.311			-4.437
219100.000			-13.310			-4.437
219200.000			-13.309			-4.436
219301.000			-13.308			-4.436
219401.000			-13.308			-4.436
219501.000			-13.308			-4.436
219602.000			-13.308			-4.436
219700.000			-13.308			-4.436
219800.000			-13.308			-4.436
219901.000			-13.308			-4.436
220000.000			-13.308			-4.436
220100.000			-13.308			-4.436
220201.000			-13.306			-4.435
220300.000			-13.306			-4.435
220402.000			-13.306			-4.435
220501.000			-13.307			-4.436
220600.000			-13.307			-4.436
220701.000			-13.307			-4.436
220800.000			-13.307			-4.436
220900.000			-13.307			-4.436
221001.000			-13.307			-4.436
221100.000			-13.307			-4.436
221200.000			-13.307			-4.436
221302.000			-13.307			-4.436
221401.000			-13.307			-4.436
221500.000			-13.307			-4.436
221601.000			-13.306			-4.435
221700.000			-13.306			-4.435
221800.000			-13.306			-4.435
221901.000			-13.307			-4.436
222000.000			-13.306			-4.435
222100.000			-13.307			-4.436
222202.000			-13.307			-4.436
222301.000			-13.306			-4.435
222400.000			-13.306			-4.435
222501.000			-13.307			-4.436
222600.000			-13.306			-4.435
222700.000			-13.305			-4.435
222801.000			-13.305			-4.435
222900.000			-13.306			-4.435
223000.000			-13.306			-4.435
223102.000			-13.304			-4.435
223201.000			-13.304			-4.435
223300.000			-13.305			-4.435
223401.000			-13.306			-4.435
223500.000			-13.305			-4.435
223601.000			-13.304			-4.435
223700.000			-13.305			-4.435
223800.000			-13.306			-4.435
223901.000			-13.304			-4.435
224001.000			-13.304			-4.435
224101.000			-13.304			-4.435
224201.000			-13.305			-4.435
224300.000			-13.305			-4.435
224400.000			-13.305			-4.435
224501.000			-13.305			-4.435
224600.000			-13.304			-4.435
224700.000			-13.304			-4.435
224801.000			-13.303			-4.434
224901.000			-13.302			-4.434
225001.000			-13.303			-4.434
225101.000			-13.303			-4.434
225200.000			-13.304			-4.435
225300.000			-13.303			-4.434
225401.000			-13.302			-4.434
225500.000			-13.302			-4.434
225600.000			-13.303			-4.434
225701.000			-13.303			-4.434
225801.000			-13.302			-4.434
225901.000			-13.303			-4.434
226001.000			-13.304			-4.435
226100.000			-13.303			-4.434
226200.000			-13.303			-4.434
226301.000			-13.303			-4.434
226400.000			-13.303			-4.434
226500.000			-13.302			-4.434
226601.000			-13.303			-4.434
226701.000			-13.303			-4.434
226802.000			-13.302			-4.434
226900.000			-13.302			-4.434
227000.000			-13.302			-4.434
227101.000			-13.302			-4.434
227200.000			-13.302			-4.434
227300.000			-13.301			-4.434
227401.000			-13.301			-4.434
227501.000			-13.301			-4.434
227601.000			-13.302			-4.434
227702.000			-13.302			-4.434
227800.000			-13.302			-4.434
227900.000			-13.301			-4.434
228001.000			-13.302			-4.434
228100.000			-13.302			-4.434
228200.000			-13.301			-4.434
228301.000			-13.301			-4.434
228401.000			-13.301			-4.434
228501.000			-13.301			-4.434
228602.000			-13.300			-4.433
228700.000			-13.300			-4.433
228800.000			-13.301			-4.434
228901.000			-13.300			-4.433
229000.000			-13.301			-4.434
229100.000			-13.301			-4.434
229201.000			-13.301			-4.434
229300.000			-13.301			-4.434
229401.000			-13.301			-4.434
229502.000			-13.301			-4.434
229600.000			-13.300			-4.433
229700.000			-13.300			-4.433
229801.000			-13.300			-4.433
229900.000			-13.300			-4.433
230001.000			-13.299			-4.433
230100.000			-13.299			-4.433
230200.000			-13.300			-4.433
230302.000			-13.300			-4.433
230401.000			-13.300			-4.433
230500.000			-13.301			-4.434
230601.000			-13.300			-4.433
230700.000			-13.298			-4.433
230800.000			-13.298			-4.433
230901.000			-13.298			-4.433
231000.000			-13.298			-4.433
231100.000			-13.298			-4.433
231202.000			-13.300			-4.433
231301.000			-13.299			-4.433
231401.000			-13.299			-4.433
231501.000			-13.298			-4.433
231600.000			-13.298			-4.433
231700.000			-13.298			-4.433
231801.000			-13.298			-4.433
231900.000			-13.299			-4.433
232000.000			-13.298			-4.433
232101.000			-13.298			-4.433
232201.000			-13.298			-4.433
232301.000			-13.298			-4.433
232401.000			-13.297			-4.432
232500.000			-13.297			-4.432
232600.000			-13.298			-4.433
232701.000			-13.298			-4.433
232800.000			-13.297			-4.432
232900.000			-13.297			-4.432
233001.000			-13.297			-4.432
233101.000			-13.297			-4.432
233202.000			-13.298			-4.433
233300.000			-13.297			-4.432
233400.000			-13.297			-4.432
233501.000			-13.297			-4.432
233600.000			-13.297			-4.432
233700.000			-13.297			-4.432
233801.000			-13.297			-4.432
233900.000			-13.297			-4.432
234001.000			-13.296			-4.432
234102.000			-13.296			-4.432
234201.000			-13.296			-4.432
234300.000			-13.296			-4.432
234401.000			-13.297			-4.432
234500.000			-13.296			-4.432
234600.000			-13.297			-4.432
234701.000			-13.296			-4.432
234800.000			-13.296			-4.432
234900.000			-13.297			-4.432
235002.000			-13.296			-4.432
235101.000			-13.295			-4.432
235200.000			-13.295			-4.432
235301.000			-13.295			-4.432
235400.000			-13.296			-4.432
235500.000			-13.295			-4.432
235601.000			-13.295			-4.432
235700.000			-13.295			-4.432
235800.000			-13.295			-4.432
235902.000			-13.294			-4.431
236001.000			-13.294			-4.431
236101.000			-13.294			-4.431
236201.000			-13.295			-4.432
236300.000			-13.296			-4.432
236401.000			-13.296			-4.432
236500.000			-13.295			-4.432
236600.000			-13.294			-4.431
236701.000			-13.294			-4.431
236800.000			-13.294			-4.431
236901.000			-13.295			-4.432
237002.000			-13.295			-4.432
237100.000			-13.293			-4.431
237200.000			-13.293			-4.431
237301.000			-13.294			-4.431
237400.000			-13.293			-4.431
237500.000			-13.293			-4.431
237601.000			-13.293			-4.431
237700.000			-13.293			-4.431
237801.000			-13.294			-4.431
237902.000			-13.294			-4.431
238001.000			-13.293			-4.431
238100.000			-13.293			-4.431
238201.000			-13.293			-4.431
238300.000			-13.293			-4.431
238400.000			-13.292			-4.431
238501.000			-13.292			-4.431
238600.000			-13.293			-4.431
238700.000			-13.293			-4.431
238802.000			-13.293			-4.431
238901.000			-13.294			-4.431
239000.000			-13.293			-4.431
239101.000			-13.293			-4.431
239200.000			-13.291			-4.430
239300.000			-13.292			-4.431
239401.000			-13.292			-4.431
239500.000			-13.294			-4.431
239601.000			-13.293			-4.431
239701.000			-13.292			-4.431
239801.000			-13.291			-4.430
239901.000			-13.292			-4.431
240000.000			-13.292			-4.431
240100.000			-13.292			-4.431
240201.000			-13.292			-4.431
240300.000			-13.292			-4.431
240400.000			-13.291			-4.430
240501.000			-13.292			-4.431
240601.000			-13.291			-4.430
240701.000			-13.290			-4.430
240802.000			-13.291			-4.430
240900.000			-13.291			-4.430
241000.000			-13.291			-4.430
241101.000			-13.291			-4.430
241200.000			-13.291			-4.430
241300.000			-13.292			-4.431
241401.000			-13.292			-4.431
241501.000			-13.291			-4.430
241601.000			-13.290			-4.430
241702.000			-13.290			-4.430
241800.000			-13.290			-4.430
241900.000			-13.290			-4.430
242001.000			-13.290			-4.430
242100.000			-13.290			-4.430
242200.000			-13.289			-4.430
242301.000			-13.289			-4.430
242401.000			-13.290			-4.430
242501.000			-13.290			-4.430
242602.000			-13.289			-4.430
242700.000			-13.289			-4.430
242801.000			-13.289			-4.430
242900.000			-13.290			-4.430
243000.000			-13.289			-4.430
243101.000			-13.289			-4.430
243200.000			-13.289			-4.430
243300.000			-13.289			-4.430
243402.000			-13.288			-4.429
243501.000			-13.289			-4.430
243601.000			-13.289			-4.430
243701.000			-13.288			-4.429
243800.000			-13.288			-4.429
243900.000			-13.288			-4.429
244001.000			-13.289			-4.430
244100.000			-13.288			-4.429
244200.000			-13.288			-4.429
244301.000			-13.288			-4.429
244401.000			-13.288			-4.429
244501.000			-13.289			-4.430
244601.000			-13.289			-4.430
244700.000			-13.288			-4.429
244800.000			-13.288			-4.429
244901.000			-13.288			-4.429
245000.000			-13.287			-4.429
245100.000			-13.287			-4.429
245201.000			-13.288			-4.429
245301.000			-13.288			-4.429
245401.000			-13.287			-4.429
245502.000			17.139			5.713
245677.000			-13.287			-4.429
245765.000			-13.287			-4.429
245853.000			-13.287			-4.429
245941.000			-13.287			-4.429
246029.000			-13.287			-4.429
246117.000			-13.288			-4.429
246205.000			-13.287			-4.429
246301.000			-13.287			-4.429
246400.000			-13.286			-4.429
246500.000			-13.288			-4.429
246602.000			-13.287			-4.429
246701.000			-13.286			-4.429
246801.000			-13.287			-4.429
246901.000			-13.288			-4.429
247000.000			-13.286			-4.429
247100.000			-13.286			-4.429
247201.000			-13.287			-4.429
247300.000			-13.287			-4.429
247400.000			-13.287			-4.429
247501.000			-13.286			-4.429
247601.000			-13.287			-4.429
247701.000			-13.286			-4.429
247801.000			-13.286			-4.429
247900.000			-13.286			-4.429
248000.000			-13.286			-4.429
248101.000			-13.285			-4.428
248200.000			-13.285			-4.428
248300.000			-13.285			-4.428
248401.000			-13.285			-4.428
248501.000			-13.285			-4.428
248601.000			-13.285			-4.428
248702.000			-13.286			-4.429
248800.000			-13.285			-4.428
248900.000			-13.285			-4.428
249001.000			-13.285			-4.428
249100.000			-13.285			-4.428
249201.000			-13.286			-4.429
249300.000			-13.285			-4.428
249400.000			-13.285			-4.428
249502.000			-13.285			-4.428
249601.000			-13.285			-4.428
249701.000			-13.284			-4.428
249801.000			-13.284			-4.428
249900.000			-13.283			-4.428
250000.000			-13.284			-4.428
250101.000			-13.284			-4.428
250200.000			-13.284			-4.428
250300.000			-13.284			-4.428
250402.000			-13.284			-4.428
250501.000			-13.283			-4.428
250601.000			-13.284			-4.428
250701.000			-13.284			-4.428
250800.000			-13.283			-4.428
250900.000			-13.284			-4.428
251001.000			-13.283			-4.428
251100.000			-13.284			-4.428
251200.000			-13.284			-4.428
251302.000			-13.283			-4.428
251401.000			-13.284			-4.428
251501.000			-13.284			-4.428
251601.000			-13.284			-4.428
251700.000			-13.284			-4.428
251800.000			-13.283			-4.428
251901.000			-13.284			-4.428
252000.000			-13.283			-4.428
252100.000			-13.282			-4.427
252201.000			-13.283			-4.428
252301.000			-13.282			-4.427
252402.000			-13.281			-4.427
252500.000			-13.282			-4.427
252600.000			-13.283			-4.428
252701.000			-13.282			-4.427
252800.000			-13.283			-4.428
252900.000			-13.283			-4.428
253001.000			-13.284			-4.428
253100.000			-13.283			-4.428
253201.000			-13.283			-4.428
253302.000			-13.282			-4.427
253400.000			-13.282			-4.427
253500.000			-13.282			-4.427
253601.000			-13.282			-4.427
253700.000			-13.282			-4.427
253800.000			-13.282			-4.427
253901.000			-13.281			-4.427
254000.000			-13.281			-4.427
254101.000			-13.281			-4.427
254202.000			-13.281			-4.427
254301.000			-13.281			-4.427
254400.000			-13.281			-4.427
254501.000			-13.281			-4.427
254600.000			-13.281			-4.427
254700.000			-13.280			-4.427
254801.000			-13.280			-4.427
254900.000			-13.281			-4.427
255001.000			-13.281			-4.427
255102.000			-13.281			-4.427
255201.000			-13.281			-4.427
255300.000			-13.280			-4.427
255401.000			-13.281			-4.427
255500.000			-13.280			-4.427
255601.000			-13.281			-4.427
255700.000			-13.282			-4.427
255800.000			-13.280			-4.427
255901.000			-13.281			-4.427
256001.000			-13.280			-4.427
256101.000			-13.279			-4.426
256201.000			-13.279			-4.426
256300.000			-13.280			-4.427
256400.000			-13.279			-4.426
256501.000			-13.280			-4.427
256600.000			-13.280			-4.427
256700.000			-13.280			-4.427
256801.000			-13.279			-4.426
256900.000			-13.279			-4.426
257001.000			-13.280			-4.427
257102.000			-13.280			-4.427
257201.000			-13.279			-4.426
257300.000			-13.279			-4.426
257401.000			-13.278			-4.426
257500.000			-13.279			-4.426
257600.000			-13.279			-4.426
257701.000			-13.279			-4.426
257800.000			-13.278			-4.426
257900.000			-13.278			-4.426
258002.000			-13.279			-4.426
258101.000			-13.279			-4.426
258200.000			-13.279			-4.426
258301.000			-13.279			-4.426
258400.000			-13.278			-4.426
258500.000			-13.278			-4.426
258601.000			-13.277			-4.426
258700.000			-13.277			-4.426
258801.000			-13.278			-4.426
258901.000			-13.277			-4.426
259001.000			-13.276			-4.425
259102.000			-13.277			-4.426
259200.000			-13.278			-4.426
259300.000			-13.279			-4.426
259401.000			-13.277			-4.426
259500.000			-13.277			-4.426
259600.000			-13.277			-4.426
259701.000			-13.278			-4.426
259800.000			-13.278			-4.426
259901.000			-13.277			-4.426
260002.000			-13.276			-4.425
260101.000			-13.275			-4.425
260200.000			-13.276			-4.425
260301.000			-13.276			-4.425
260400.000			-13.276			-4.425
260500.000			-13.277			-4.426
260601.000			-13.277			-4.426
260700.000			-13.277			-4.426
260800.000			-13.276			-4.425
260902.000			-13.277			-4.426
261001.000			-13.276			-4.425
261100.000			-13.276			-4.425
261201.000			-13.277			-4.426
261300.000			-13.276			-4.425
261400.000			-13.276			-4.425
261501.000			-13.276			-4.425
261600.000			-13.276			-4.425
261700.000			-13.275			-4.425
261802.000			-13.276			-4.425
261901.000			-13.277			-4.426
262001.000			-13.276			-4.425
262100.000			-13.275			-4.425
262200.000			-13.275			-4.425
262301.000			-13.275			-4.425
262400.000			-13.276			-4.425
262500.000			-13.276			-4.425
262601.000			-13.276			-4.425
262701.000			-13.276			-4.425
262801.000			-13.274			-4.425
262902.000			-13.273			-4.424
263000.000			-13.274			-4.425
263100.000			-13.275			-4.425
263201.000			-13.275			-4.425
263300.000			-13.275			-4.425
263400.000			-13.274			-4.425
263501.000			-13.273			-4.424
263601.000			-13.274			-4.425
263701.000			-13.273			-4.424
263802.000			-13.274			-4.425
263900.000			-13.274			-4.425
264000.000			-13.274			-4.425
264101.000			-13.273			-4.424
264200.000			-13.273			-4.424
264300.000			-13.274			-4.425
264401.000			-13.274			-4.425
264500.000			-13.273			-4.424
264601.000			-13.273			-4.424
264702.000			-13.273			-4.424
264800.000			-13.274			-4.425
264900.000			-13.274			-4.425
265001.000			-13.273			-4.424
265100.000			-13.273			-4.424
265201.000			-13.273			-4.424
265300.000			-13.273			-4.424
265400.000			-13.273			-4.424
265502.000			-13.272			-4.424
265601.000			-13.272			-4.424
265701.000			-13.273			-4.424
265801.000			-13.273			-4.424
265900.000			-13.272			-4.424
266000.000			-13.273			-4.424
266101.000			-13.273			-4.424
266200.000			-13.272			-4.424
266300.000			-13.273			-4.424
266401.000			-13.273			-4.424
266501.000			-13.272			-4.424
266601.000			-13.272			-4.424
266701.000			-13.272			-4.424
266800.000			-13.272			-4.424
266900.000			-13.271			-4.424
267001.000			-13.271			-4.424
267100.000			-13.271			-4.424
267200.000			-13.272			-4.424
267301.000			-13.272			-4.424
267401.000			-13.271			-4.424
267501.000			-13.271			-4.424
267601.000			-13.271			-4.424
267700.000			-13.271			-4.424
267800.000			-13.271			-4.424
267901.000			-13.272			-4.424
268000.000			-13.271			-4.424
268100.000			-13.271			-4.424
268201.000			-13.270			-4.423
268301.000			-13.270			-4.423
268402.000			-13.270			-4.423
268501.000			-13.271			-4.424
268600.000			-13.270			-4.423
268701.000			-13.270			-4.423
268800.000			-13.270			-4.423
268900.000			-13.271			-4.424
269001.000			-13.271			-4.424
269100.000			-13.271			-4.424
269200.000			-13.270			-4.423
269302.000			-13.271			-4.424
269401.000			-13.270			-4.423
269500.000			-13.270			-4.423
269601.000			-13.270			-4.423
269700.000			-13.270			-4.423
269800.000			-13.269			-4.423
269901.000			-13.269			-4.423
270000.000			-13.269			-4.423
270100.000			-13.270			-4.423
270202.000			-13.269			-4.423
270301.000			-13.269			-4.423
270401.000			-13.268			-4.423
270501.000			-13.269			-4.423
270600.000			-13.268			-4.423
270700.000			-13.268			-4.423
270801.000			-13.268			-4.423
270900.000			-13.269			-4.423
271000.000			-13.269			-4.423
271101.000			-13.269			-4.423
271201.000			-13.268			-4.423
271301.000			-13.268			-4.423
271401.000			-13.269			-4.423
271500.000			-13.269			-4.423
271601.000			-13.268			-4.423
271700.000			-13.268			-4.423
271800.000			-13.268			-4.423
271901.000			-13.268			-4.423
272000.000			-13.269			-4.423
272101.000			-13.268			-4.423
272202.000			-13.267			-4.422
272301.000			-13.267			-4.422
272400.000			-13.268			-4.423
272501.000			-13.267			-4.422
272600.000			-13.267			-4.422
272700.000			-13.268			-4.423
272801.000			-13.268			-4.423
272900.000			-13.267			-4.422
273000.000			-13.268			-4.423
273102.000			-13.268			-4.423
273201.000			-13.267			-4.422
273300.000			-13.267			-4.422
273401.000			-13.267			-4.422
273500.000			-13.267			-4.422
273600.000			-13.267			-4.422
273701.000			-13.267			-4.422
273800.000			-13.267			-4.422
273900.000			-13.268			-4.423
274002.000			-13.268			-4.423
274101.000			-13.267			-4.422
274201.000			-13.267			-4.422
274301.000			-13.267			-4.422
274400.000			-13.266			-4.422
274500.000			-13.266			-4.422
274601.000			-13.267			-4.422
274700.000			-13.266			-4.422
274801.000			-13.267			-4.422
274900.000			-13.266			-4.422
275001.000			-13.265			-4.422
275102.000			-13.266			-4.422
275201.000			-13.266			-4.422
275300.000			-13.267			-4.422
275401.000			-13.266			-4.422
275500.000			-13.266			-4.422
275600.000			-13.266			-4.422
275701.000			-13.266			-4.422
275800.000			-13.265			-4.422
275901.000			-13.265			-4.422
276002.000			-13.265			-4.422
276101.000			-13.266			-4.422
276200.000			-13.266			-4.422
276301.000			-13.267			-4.422
276400.000			-13.265			-4.422
276500.000			-13.265			-4.422
276601.000			-13.266			-4.422
276700.000			-13.266			-4.422
276800.000			-13.265			-4.422
276902.000			-13.265			-4.422
277001.000			-13.265			-4.422
277100.000			-13.266			-4.422
277201.000			-13.265			-4.422
277300.000			-13.264			-4.421
277400.000			-13.265			-4.422
277501.000			-13.265			-4.422
277600.000			-13.265			-4.422
277700.000			-13.266			-4.422
277802.000			-13.264			-4.421
277901.000			-13.264			-4.421
278002.000			-13.264			-4.421
278100.000			-13.263			-4.421
278200.000			-13.264			-4.421
278301.000			-13.264			-4.421
278400.000			-13.265			-4.422
278500.000			-13.265			-4.422
278601.000			-13.265			-4.422
278700.000			-13.264			-4.421
278801.000			-13.264			-4.421
278902.000			-13.264			-4.421
279001.000			-13.264			-4.421
279100.000			-13.264			-4.421
279201.000			-13.265			-4.422
279300.000			-13.263			-4.421
279400.000			-13.263			-4.421
279501.000			-13.263			-4.421
279600.000			-13.264			-4.421
279700.000			-13.264			-4.421
279802.000			-13.264			-4.421
279901.000			-13.264			-4.421
280000.000			-13.262			-4.421
280101.000			-13.263			-4.421
280200.000			-13.263			-4.421
280300.000			-13.263			-4.421
280401.000			-13.262			-4.421
280500.000			-13.262			-4.421
280600.000			-13.262			-4.421
280702.000			-13.262			-4.421
280801.000			-13.263			-4.421
280900.000			-13.262			-4.421
281001.000			-13.262			-4.421
281100.000			-13.262			-4.421
281201.000			-13.262			-4.421
281300.000			-13.262			-4.421
281400.000			-13.262			-4.421
281501.000			-13.262			-4.421
281601.000			-13.262			-4.421
281701.000			-13.262			-4.421
281801.000			-13.263			-4.421
281900.000			-13.262			-4.421
282000.000			-13.263			-4.421
282101.000			-13.261			-4.420
282200.000			-13.260			-4.420
282300.000			-13.261			-4.420
282401.000			-13.262			-4.421
282501.000			-13.262			-4.421
282601.000			-13.261			-4.420
282701.000			-13.261			-4.420
282800.000			-13.261			-4.420
282900.000			-13.261			-4.420
283001.000			-13.262			-4.421
283100.000			-13.262			-4.421
283200.000			-13.262			-4.421
283301.000			-13.261			-4.420
283401.000			-13.261			-4.420
283501.000			-13.261			-4.420
283601.000			-13.261			-4.420
283700.000			-13.261			-4.420
283800.000			-13.261			-4.420
283901.000			-13.261			-4.420
284000.000			-13.260			-4.420
284100.000			-13.260			-4.420
284201.000			-13.260			-4.420
284301.000			-13.260			-4.420
284402.000			-13.260			-4.420
284501.000			-13.260			-4.420
284600.000			-13.259			-4.420
284701.000			-13.259			-4.420
284800.000			-13.260			-4.420
284900.000			-13.260			-4.420
285001.000			-13.260			-4.420
285100.000			-13.260			-4.420
285201.000			-13.260			-4.420
285302.000			-13.258			-4.419
285401.000			-13.258			-4.419
285500.000			-13.260			-4.420
285601.000			-13.259			-4.420
285700.000			-13.260			-4.420
285800.000			-13.259			-4.420
285901.000			-13.259			-4.420
286000.000			-13.259			-4.420
286100.000			-13.258			-4.419
286202.000			-13.260			-4.420
286301.000			-13.260			-4.420
286401.000			-13.258			-4.419
286501.000			-13.258			-4.419
286600.000			-13.258			-4.419
286700.000			-13.259			-4.420
286801.000			-13.259			-4.420
286900.000			-13.258			-4.419
287000.000			-13.258			-4.419
287101.000			-13.258			-4.419
287201.000			-13.258			-4.419
287301.000			-13.258			-4.419
287401.000			-13.259			-4.420
287500.000			-13.257			-4.419
287601.000			-13.256			-4.419
287700.000			-13.257			-4.419
287800.000			-13.257			-4.419
287901.000			-13.257			-4.419
288000.000			-13.257			-4.419
288101.000			-13.258			-4.419
288202.000			-13.257			-4.419
288301.000			-13.257			-4.419
288400.000			-13.257			-4.419
288501.000			-13.258			-4.419
288600.000			-13.258			-4.419
288700.000			-13.257			-4.419
288801.000			-13.256			-4.419
288900.000			-13.258			-4.419
289000.000			-13.257			-4.419
289102.000			-13.256			-4.419
289201.000			-13.257			-4.419
289301.000			-13.257			-4.419
289401.000			-13.257			-4.419
289500.000			-13.257			-4.419
289600.000			-13.256			-4.419
289701.000			-13.257			-4.419
289800.000			-13.258			-4.419
289900.000			-13.257			-4.419
290001.000			-13.256			-4.419
290101.000			-13.256			-4.419
290201.000			-13.257			-4.419
290301.000			-13.256			-4.419
290400.000			-13.257			-4.419
290500.000			-13.257			-4.419
290601.000			-13.257			-4.419
290700.000			-13.257			-4.419
290801.000			-13.256			-4.419
290900.000			-13.255			-4.418
291001.000			-13.255			-4.418
291102.000			-13.256			-4.419
291200.000			-13.256			-4.419
291300.000			-13.256			-4.419
291401.000			-13.256			-4.419
291500.000			-13.255			-4.418
291600.000			-13.256			-4.419
291701.000			-13.255			-4.418
291800.000			-13.256			-4.419
291901.000			-13.256			-4.419
292002.000			-13.255			-4.418
292101.000			-13.255			-4.418
292200.000			-13.255			-4.418
292301.000			-13.255			-4.418
292400.000			-13.255			-4.418
292500.000			-13.255			-4.418
292601.000			-13.255			-4.418
292700.000			-13.255			-4.418
292801.000			-13.254			-4.418
292902.000			-13.255			-4.418
293001.000			-13.256			-4.419
293100.000			-13.255			-4.418
293201.000			-13.253			-4.418
293300.000			-13.254			-4.418
293400.000			-13.253			-4.418
293501.000			-13.254			-4.418
293600.000			-13.254			-4.418
293700.000			-13.254			-4.418
293802.000			-13.254			-4.418
293901.000			-13.254			-4.418
294001.000			-13.254			-4.418
294100.000			-13.253			-4.418
294200.000			-13.252			-4.417
294301.000			-13.253			-4.418
294400.000			-13.254			-4.418
294500.000			-13.253			-4.418
294601.000			-13.254			-4.418
294701.000			-13.254			-4.418
294801.000			-13.254			-4.418
294901.000			-13.254			-4.418
295000.000			-13.254			-4.418
295100.000			-13.253			-4.418
295201.000			-13.253			-4.418
295300.000			-13.252			-4.417
295400.000			-13.252			-4.417
295501.000			-13.252			-4.417
295601.000			-13.252			-4.417
295701.000			-13.253			-4.418
295802.000			-13.254			-4.418
295900.000			-13.253			-4.418
296000.000			-13.253			-4.418
296101.000			-13.252			-4.417
296200.000			-13.252			-4.417
296300.000			-13.253			-4.418
296401.000			-13.253			-4.418
296501.000			-13.253			-4.418
296601.000			-13.252			-4.417
296702.000			-13.253			-4.418
296800.000			-13.252			-4.417
296900.000			-13.252			-4.417
297001.000			-13.252			-4.417
297100.000			-13.252			-4.417
297201.000			-13.251			-4.417
297300.000			-13.252			-4.417
297400.000			-13.252			-4.417
297502.000			-13.252			-4.417
297601.000			-13.252			-4.417
297700.000			-13.252			-4.417
297801.000			-13.252			-4.417
297900.000			-13.252			-4.417
298000.000			-13.251			-4.417
298101.000			-13.251			-4.417
298200.000			-13.251			-4.417
298300.000			-13.250			-4.417
298402.000			-13.252			-4.417
298501.000			-13.252			-4.417
298601.000			-13.252			-4.417
298701.000			-13.250			-4.417
298800.000			-13.251			-4.417
298900.000			-13.252			-4.417
299001.000			-13.251			-4.417
299100.000			-13.251			-4.417
299200.000			-13.250			-4.417
299301.000			-13.250			-4.417
299401.000			-13.250			-4.417
299501.000			-13.250			-4.417
299601.000			-13.251			-4.417
299700.000			-13.250			-4.417
299800.000			-13.250			-4.417
299901.000			-13.249			-4.416
