# Acquired on 21/12/2023 13:08:00 
# SPIDER: Creep_9mm_07714532B-2
# CREEP MEASUREMENT

# time [ms]		force [N]		stiffness [N/mm]
0.000			-44.384			-4.932
101.000			-46.063			-5.118
202.000			-46.605			-5.178
300.000			-46.406			-5.156
400.000			-46.091			-5.121
501.000			-45.650			-5.072
600.000			-45.480			-5.053
700.000			-45.330			-5.037
802.000			-45.198			-5.022
901.000			-45.080			-5.009
1000.000			-44.972			-4.997
1101.000			-44.874			-4.986
1200.000			-44.696			-4.966
1300.000			-44.617			-4.957
1401.000			-44.544			-4.949
1500.000			-44.475			-4.942
1601.000			-44.408			-4.934
1702.000			-44.346			-4.927
1800.000			-44.288			-4.921
1900.000			-44.232			-4.915
2001.000			-44.127			-4.903
2100.000			-44.078			-4.898
2200.000			-44.033			-4.893
2302.000			-43.987			-4.887
2401.000			-43.943			-4.883
2501.000			-43.901			-4.878
2600.000			-43.861			-4.873
2700.000			-43.785			-4.865
2801.000			-43.747			-4.861
2900.000			-43.712			-4.857
3000.000			-43.677			-4.853
3102.000			-43.643			-4.849
3201.000			-43.611			-4.846
3300.000			-43.579			-4.842
3401.000			-43.520			-4.836
3500.000			-43.490			-4.832
3600.000			-43.462			-4.829
3701.000			-43.434			-4.826
3800.000			-43.407			-4.823
3901.000			-43.380			-4.820
4002.000			-43.354			-4.817
4100.000			-43.329			-4.814
4200.000			-43.280			-4.809
4301.000			-43.257			-4.806
4400.000			-43.234			-4.804
4500.000			-43.211			-4.801
4602.000			-43.189			-4.799
4701.000			-43.167			-4.796
4800.000			-43.144			-4.794
4901.000			-43.104			-4.789
5000.000			-43.083			-4.787
5100.000			-43.063			-4.785
5201.000			-43.043			-4.783
5300.000			-43.024			-4.780
5401.000			-43.005			-4.778
5501.000			-42.986			-4.776
5600.000			-42.951			-4.772
5701.000			-42.934			-4.770
5800.000			-42.916			-4.768
5900.000			-42.898			-4.766
6001.000			-42.882			-4.765
6101.000			-42.865			-4.763
6201.000			-42.849			-4.761
6301.000			-42.818			-4.758
6400.000			-42.801			-4.756
6500.000			-42.786			-4.754
6601.000			-42.770			-4.752
6700.000			-42.755			-4.751
6800.000			-42.740			-4.749
6902.000			-42.725			-4.747
7001.000			-42.711			-4.746
7100.000			-42.682			-4.742
7201.000			-42.669			-4.741
7300.000			-42.655			-4.739
7400.000			-42.641			-4.738
7501.000			-42.626			-4.736
7600.000			-42.614			-4.735
7701.000			-42.601			-4.733
7802.000			-42.575			-4.731
7900.000			-42.563			-4.729
8000.000			-42.551			-4.728
8101.000			-42.537			-4.726
8200.000			-42.525			-4.725
8300.000			-42.514			-4.724
8402.000			-42.501			-4.722
8501.000			-42.477			-4.720
8600.000			-42.465			-4.718
8701.000			-42.454			-4.717
8800.000			-42.443			-4.716
8901.000			-42.431			-4.715
9000.000			-42.421			-4.713
9100.000			-42.410			-4.712
9202.000			-42.399			-4.711
9301.000			-42.377			-4.709
9400.000			-42.367			-4.707
9501.000			-42.355			-4.706
9600.000			-42.345			-4.705
9700.000			-42.335			-4.704
9801.000			-42.325			-4.703
9901.000			-42.315			-4.702
10001.000			-42.296			-4.700
10102.000			-42.285			-4.698
10200.000			-42.274			-4.697
10300.000			-42.264			-4.696
10401.000			-42.254			-4.695
10500.000			-42.245			-4.694
10600.000			-42.237			-4.693
10702.000			-42.218			-4.691
10801.000			-42.209			-4.690
10900.000			-42.199			-4.689
11001.000			-42.190			-4.688
11100.000			-42.181			-4.687
11200.000			-42.171			-4.686
11301.000			-42.163			-4.685
11400.000			-42.155			-4.684
11501.000			-42.137			-4.682
11602.000			-42.128			-4.681
11700.000			-42.120			-4.680
11800.000			-42.112			-4.679
11901.000			-42.103			-4.678
12000.000			-42.095			-4.677
12101.000			-42.087			-4.676
12201.000			-42.071			-4.675
12301.000			-42.063			-4.674
12401.000			-42.056			-4.673
12500.000			-42.047			-4.672
12600.000			-42.039			-4.671
12701.000			-42.031			-4.670
12800.000			-42.024			-4.669
12900.000			-42.007			-4.667
13002.000			-41.999			-4.667
13101.000			-41.993			-4.666
13200.000			-41.985			-4.665
13301.000			-41.977			-4.664
13400.000			-41.970			-4.663
13500.000			-41.963			-4.663
13601.000			-41.948			-4.661
13700.000			-41.941			-4.660
13801.000			-41.934			-4.659
13902.000			-41.926			-4.658
14000.000			-41.919			-4.658
14100.000			-41.912			-4.657
14201.000			-41.905			-4.656
14300.000			-41.898			-4.655
14400.000			-41.885			-4.654
14501.000			-41.877			-4.653
14601.000			-41.871			-4.652
14701.000			-41.864			-4.652
14801.000			-41.857			-4.651
14900.000			-41.850			-4.650
15000.000			-41.843			-4.649
15101.000			-41.831			-4.648
15200.000			-41.826			-4.647
15301.000			-41.819			-4.647
15401.000			-41.812			-4.646
15501.000			-41.805			-4.645
15601.000			-41.798			-4.644
15700.000			-41.791			-4.643
15800.000			-41.780			-4.642
15901.000			-41.773			-4.641
16000.000			-41.766			-4.641
16100.000			-41.760			-4.640
16202.000			-41.755			-4.639
16301.000			-41.749			-4.639
16400.000			-41.743			-4.638
16501.000			-41.737			-4.637
16600.000			-41.725			-4.636
16700.000			-41.718			-4.635
16801.000			-41.713			-4.635
16900.000			-41.708			-4.634
17001.000			-41.702			-4.634
17102.000			-41.696			-4.633
17200.000			-41.691			-4.632
17300.000			-41.679			-4.631
17401.000			-41.673			-4.630
17500.000			-41.667			-4.630
17600.000			-41.661			-4.629
17701.000			-41.656			-4.628
17801.000			-41.650			-4.628
17901.000			-41.645			-4.627
18001.000			-41.633			-4.626
18100.000			-41.628			-4.625
18200.000			-41.623			-4.625
18301.000			-41.618			-4.624
18400.000			-41.614			-4.624
18501.000			-41.609			-4.623
18601.000			-41.603			-4.623
18701.000			-41.591			-4.621
18801.000			-41.585			-4.621
18900.000			-41.581			-4.620
19000.000			-41.576			-4.620
19101.000			-41.571			-4.619
19200.000			-41.566			-4.618
19300.000			-41.559			-4.618
19402.000			-41.554			-4.617
19501.000			-41.545			-4.616
19600.000			-41.540			-4.616
19701.000			-41.535			-4.615
19800.000			-41.530			-4.614
19900.000			-41.524			-4.614
20001.000			-41.520			-4.613
20100.000			-41.515			-4.613
20201.000			-41.506			-4.612
20302.000			-41.501			-4.611
20400.000			-41.497			-4.611
20500.000			-41.491			-4.610
20601.000			-41.487			-4.610
20700.000			-41.482			-4.609
20800.000			-41.477			-4.609
20902.000			-41.466			-4.607
21001.000			-41.462			-4.607
21100.000			-41.459			-4.607
21201.000			-41.454			-4.606
21300.000			-41.449			-4.605
21400.000			-41.444			-4.605
21501.000			-41.439			-4.604
21600.000			-41.435			-4.604
21702.000			-41.426			-4.603
21801.000			-41.421			-4.602
21900.000			-41.416			-4.602
22001.000			-41.412			-4.601
22100.000			-41.407			-4.601
22200.000			-41.403			-4.600
22301.000			-41.398			-4.600
22400.000			-41.388			-4.599
22501.000			-41.384			-4.598
22602.000			-41.380			-4.598
22700.000			-41.376			-4.597
22800.000			-41.373			-4.597
22901.000			-41.368			-4.596
23000.000			-41.362			-4.596
23100.000			-41.355			-4.595
23201.000			-41.350			-4.594
23301.000			-41.346			-4.594
23401.000			-41.342			-4.594
23501.000			-41.338			-4.593
23600.000			-41.333			-4.593
23700.000			-41.329			-4.592
23801.000			-41.325			-4.592
23900.000			-41.318			-4.591
24001.000			-41.314			-4.590
24102.000			-41.309			-4.590
24200.000			-41.305			-4.589
24300.000			-41.300			-4.589
24401.000			-41.297			-4.589
24500.000			-41.293			-4.588
24600.000			-41.284			-4.587
24701.000			-41.280			-4.587
24801.000			-41.276			-4.586
24902.000			-41.273			-4.586
25000.000			-41.269			-4.585
25100.000			-41.265			-4.585
25201.000			-41.261			-4.585
25300.000			-41.252			-4.584
25400.000			-41.248			-4.583
25501.000			-41.245			-4.583
25601.000			-41.241			-4.582
25701.000			-41.237			-4.582
25801.000			-41.233			-4.581
25900.000			-41.230			-4.581
26000.000			-41.226			-4.581
26101.000			-41.218			-4.580
26200.000			-41.215			-4.579
26300.000			-41.211			-4.579
26402.000			-41.206			-4.578
26501.000			-41.202			-4.578
26600.000			-41.200			-4.578
26701.000			-41.198			-4.578
26800.000			-41.191			-4.577
26900.000			-41.187			-4.576
27001.000			-41.183			-4.576
27101.000			-41.178			-4.575
27201.000			-41.175			-4.575
27301.000			-41.171			-4.575
27400.000			-41.167			-4.574
27500.000			-41.161			-4.573
27601.000			-41.157			-4.573
27700.000			-41.153			-4.573
27800.000			-41.150			-4.572
27902.000			-41.147			-4.572
28001.000			-41.143			-4.571
28101.000			-41.139			-4.571
28200.000			-41.137			-4.571
28300.000			-41.130			-4.570
28401.000			-41.127			-4.570
28500.000			-41.124			-4.569
28600.000			-41.121			-4.569
28702.000			-41.117			-4.569
28801.000			-41.113			-4.568
28900.000			-41.109			-4.568
29001.000			-41.103			-4.567
29100.000			-41.100			-4.567
29200.000			-41.096			-4.566
29301.000			-41.093			-4.566
29400.000			-41.089			-4.565
29501.000			-41.085			-4.565
29602.000			-41.082			-4.565
29700.000			-41.076			-4.564
29800.000			-41.073			-4.564
29901.000			-41.069			-4.563
30000.000			-41.066			-4.563
30100.000			-41.064			-4.563
30201.000			-41.061			-4.562
30301.000			-41.057			-4.562
30401.000			-41.050			-4.561
30501.000			-41.048			-4.561
30600.000			-41.044			-4.560
30700.000			-41.041			-4.560
30801.000			-41.037			-4.560
30900.000			-41.034			-4.559
31000.000			-41.030			-4.559
31102.000			-41.027			-4.559
31201.000			-41.022			-4.558
31301.000			-41.018			-4.558
31400.000			-41.015			-4.557
31500.000			-41.012			-4.557
31601.000			-41.009			-4.557
31700.000			-41.005			-4.556
31801.000			-41.002			-4.556
31902.000			-40.996			-4.555
32000.000			-40.993			-4.555
32100.000			-40.990			-4.554
32201.000			-40.986			-4.554
32300.000			-40.983			-4.554
32400.000			-40.980			-4.553
32501.000			-40.977			-4.553
32601.000			-40.972			-4.552
32701.000			-40.969			-4.552
32801.000			-40.965			-4.552
32900.000			-40.963			-4.551
33000.000			-40.959			-4.551
33101.000			-40.955			-4.551
33200.000			-40.953			-4.550
33300.000			-40.951			-4.550
33402.000			-40.944			-4.549
33501.000			-40.941			-4.549
33600.000			-40.939			-4.549
33701.000			-40.937			-4.549
33800.000			-40.934			-4.548
33900.000			-40.930			-4.548
34001.000			-40.928			-4.548
34100.000			-40.921			-4.547
34201.000			-40.918			-4.546
34302.000			-40.916			-4.546
34400.000			-40.914			-4.546
34501.000			-40.910			-4.546
34600.000			-40.907			-4.545
34700.000			-40.904			-4.545
34801.000			-40.899			-4.544
34900.000			-40.895			-4.544
35001.000			-40.893			-4.544
35102.000			-40.889			-4.543
35200.000			-40.887			-4.543
35300.000			-40.885			-4.543
35401.000			-40.882			-4.542
35500.000			-40.879			-4.542
35600.000			-40.873			-4.541
35701.000			-40.870			-4.541
35801.000			-40.868			-4.541
35901.000			-40.865			-4.541
36001.000			-40.862			-4.540
36100.000			-40.861			-4.540
36200.000			-40.858			-4.540
36301.000			-40.853			-4.539
36400.000			-40.850			-4.539
36500.000			-40.846			-4.538
36602.000			-40.843			-4.538
36701.000			-40.841			-4.538
36800.000			-40.837			-4.537
36901.000			-40.834			-4.537
37000.000			-40.829			-4.537
37100.000			-40.827			-4.536
37201.000			-40.824			-4.536
37300.000			-40.823			-4.536
37401.000			-40.819			-4.535
37502.000			-40.817			-4.535
37600.000			-40.814			-4.535
37701.000			-40.810			-4.534
37800.000			-40.807			-4.534
37900.000			-40.804			-4.534
38001.000			-40.801			-4.533
38100.000			-40.798			-4.533
38201.000			-40.796			-4.533
38302.000			-40.794			-4.533
38400.000			-40.792			-4.532
38500.000			-40.786			-4.532
38601.000			-40.784			-4.532
38700.000			-40.782			-4.531
38800.000			-40.779			-4.531
38901.000			-40.777			-4.531
39001.000			-40.775			-4.531
39101.000			-40.771			-4.530
39201.000			-40.766			-4.530
39300.000			-40.763			-4.529
39400.000			-40.760			-4.529
39501.000			-40.758			-4.529
39600.000			-40.756			-4.528
39700.000			-40.754			-4.528
39802.000			-40.752			-4.528
39901.000			-40.746			-4.527
40000.000			-40.744			-4.527
40101.000			-40.742			-4.527
40200.000			-40.739			-4.527
40300.000			-40.736			-4.526
40401.000			-40.734			-4.526
40500.000			-40.731			-4.526
40601.000			-40.727			-4.525
40702.000			-40.723			-4.525
40800.000			-40.721			-4.525
40901.000			-40.720			-4.524
41000.000			-40.718			-4.524
41100.000			-40.716			-4.524
41201.000			-40.712			-4.524
41300.000			-40.710			-4.523
41401.000			-40.705			-4.523
41502.000			-40.703			-4.523
41600.000			-40.699			-4.522
41700.000			-40.698			-4.522
41801.000			-40.694			-4.522
41900.000			-40.692			-4.521
42000.000			-40.690			-4.521
42101.000			-40.687			-4.521
42201.000			-40.683			-4.520
42301.000			-40.681			-4.520
42401.000			-40.680			-4.520
42500.000			-40.678			-4.520
42600.000			-40.676			-4.520
42701.000			-40.673			-4.519
42800.000			-40.669			-4.519
42900.000			-40.667			-4.519
43002.000			-40.665			-4.518
43101.000			-40.662			-4.518
43200.000			-40.658			-4.518
43301.000			-40.657			-4.517
43400.000			-40.655			-4.517
43500.000			-40.652			-4.517
43601.000			-40.649			-4.517
43701.000			-40.647			-4.516
43801.000			-40.644			-4.516
43902.000			-40.642			-4.516
44000.000			-40.640			-4.516
44101.000			-40.638			-4.515
44200.000			-40.635			-4.515
44300.000			-40.630			-4.514
44401.000			-40.628			-4.514
44500.000			-40.626			-4.514
44601.000			-40.624			-4.514
44702.000			-40.623			-4.514
44800.000			-40.620			-4.513
44900.000			-40.617			-4.513
45001.000			-40.613			-4.513
45100.000			-40.610			-4.512
45200.000			-40.608			-4.512
45302.000			-40.606			-4.512
45401.000			-40.604			-4.512
45501.000			-40.602			-4.511
45601.000			-40.600			-4.511
45700.000			-40.599			-4.511
45800.000			-40.594			-4.510
45901.000			-40.592			-4.510
46000.000			-40.589			-4.510
46100.000			-40.586			-4.510
46202.000			-40.584			-4.509
46301.000			-40.583			-4.509
46400.000			-40.580			-4.509
46501.000			-40.577			-4.509
46600.000			-40.575			-4.508
46700.000			-40.573			-4.508
46801.000			-40.570			-4.508
46901.000			-40.568			-4.508
47001.000			-40.566			-4.507
47102.000			-40.564			-4.507
47200.000			-40.559			-4.507
47301.000			-40.557			-4.506
47400.000			-40.555			-4.506
47500.000			-40.554			-4.506
47601.000			-40.552			-4.506
47700.000			-40.550			-4.506
47801.000			-40.548			-4.505
47902.000			-40.543			-4.505
48000.000			-40.541			-4.505
48100.000			-40.539			-4.504
48201.000			-40.537			-4.504
48300.000			-40.535			-4.504
48400.000			-40.533			-4.504
48501.000			-40.531			-4.503
48601.000			-40.529			-4.503
48701.000			-40.526			-4.503
48801.000			-40.524			-4.503
48900.000			-40.522			-4.502
49000.000			-40.520			-4.502
49101.000			-40.517			-4.502
49200.000			-40.515			-4.502
49300.000			-40.514			-4.502
49402.000			-40.509			-4.501
49501.000			-40.507			-4.501
49600.000			-40.505			-4.501
49701.000			-40.504			-4.500
49800.000			-40.501			-4.500
49900.000			-40.499			-4.500
50001.000			-40.497			-4.500
50100.000			-40.494			-4.499
50201.000			-40.491			-4.499
50302.000			-40.489			-4.499
50400.000			-40.488			-4.499
50501.000			-40.487			-4.499
50600.000			-40.485			-4.498
50700.000			-40.483			-4.498
50801.000			-40.481			-4.498
50900.000			-40.477			-4.497
51001.000			-40.475			-4.497
51102.000			-40.474			-4.497
51200.000			-40.472			-4.497
51300.000			-40.469			-4.497
51401.000			-40.466			-4.496
51500.000			-40.465			-4.496
51600.000			-40.463			-4.496
51701.000			-40.460			-4.496
51801.000			-40.458			-4.495
51901.000			-40.457			-4.495
52001.000			-40.456			-4.495
52100.000			-40.453			-4.495
52200.000			-40.451			-4.495
52301.000			-40.448			-4.494
52400.000			-40.445			-4.494
52501.000			-40.442			-4.494
52602.000			-40.441			-4.493
52701.000			-40.440			-4.493
52800.000			-40.438			-4.493
52901.000			-40.437			-4.493
53000.000			-40.435			-4.493
53100.000			-40.431			-4.492
53201.000			-40.429			-4.492
53301.000			-40.426			-4.492
53401.000			-40.425			-4.492
53501.000			-40.424			-4.492
53600.000			-40.421			-4.491
53701.000			-40.419			-4.491
53800.000			-40.417			-4.491
53900.000			-40.414			-4.490
54001.000			-40.411			-4.490
54101.000			-40.409			-4.490
54201.000			-40.408			-4.490
54301.000			-40.407			-4.490
54400.000			-40.405			-4.489
54500.000			-40.402			-4.489
54601.000			-40.400			-4.489
54700.000			-40.399			-4.489
54800.000			-40.397			-4.489
54902.000			-40.395			-4.488
55001.000			-40.393			-4.488
55100.000			-40.391			-4.488
55201.000			-40.388			-4.488
55300.000			-40.385			-4.487
55400.000			-40.384			-4.487
55501.000			-40.383			-4.487
55600.000			-40.381			-4.487
55701.000			-40.380			-4.487
55802.000			-40.377			-4.486
55900.000			-40.374			-4.486
56000.000			-40.372			-4.486
56101.000			-40.370			-4.486
56200.000			-40.368			-4.485
56300.000			-40.368			-4.485
56401.000			-40.366			-4.485
56501.000			-40.363			-4.485
56601.000			-40.361			-4.485
56701.000			-40.360			-4.484
56800.000			-40.358			-4.484
56901.000			-40.355			-4.484
57000.000			-40.353			-4.484
57100.000			-40.352			-4.484
57201.000			-40.350			-4.483
57301.000			-40.349			-4.483
57401.000			-40.345			-4.483
57501.000			-40.344			-4.483
57600.000			-40.341			-4.482
57700.000			-40.340			-4.482
57801.000			-40.339			-4.482
57900.000			-40.337			-4.482
58000.000			-40.335			-4.482
58102.000			-40.333			-4.481
58201.000			-40.329			-4.481
58300.000			-40.327			-4.481
58401.000			-40.325			-4.481
58500.000			-40.324			-4.480
58600.000			-40.324			-4.480
58701.000			-40.322			-4.480
58801.000			-40.320			-4.480
58901.000			-40.317			-4.480
59001.000			-40.315			-4.479
59100.000			-40.313			-4.479
59200.000			-40.311			-4.479
59301.000			-40.310			-4.479
59400.000			-40.308			-4.479
59500.000			-40.307			-4.479
59602.000			-40.303			-4.478
59701.000			-40.301			-4.478
59800.000			-40.299			-4.478
59901.000			-40.299			-4.478
60000.000			-40.296			-4.477
60101.000			-40.295			-4.477
60200.000			-40.294			-4.477
60300.000			-40.292			-4.477
60402.000			-40.289			-4.477
60501.000			-40.288			-4.476
60600.000			-40.285			-4.476
60701.000			-40.285			-4.476
60800.000			-40.282			-4.476
60900.000			-40.280			-4.476
61001.000			-40.278			-4.475
61100.000			-40.276			-4.475
61201.000			-40.274			-4.475
61302.000			-40.273			-4.475
61400.000			-40.272			-4.475
61500.000			-40.269			-4.474
61601.000			-40.268			-4.474
61700.000			-40.266			-4.474
61800.000			-40.263			-4.474
61901.000			-40.262			-4.474
62001.000			-40.260			-4.473
62101.000			-40.258			-4.473
62201.000			-40.257			-4.473
62300.000			-40.255			-4.473
62400.000			-40.253			-4.473
62501.000			-40.249			-4.472
62600.000			-40.248			-4.472
62700.000			-40.246			-4.472
62802.000			-40.245			-4.472
62901.000			-40.243			-4.471
63000.000			-40.242			-4.471
63101.000			-40.241			-4.471
63200.000			-40.240			-4.471
63301.000			-40.236			-4.471
63400.000			-40.234			-4.470
63501.000			-40.232			-4.470
63602.000			-40.231			-4.470
63700.000			-40.230			-4.470
63800.000			-40.229			-4.470
63901.000			-40.227			-4.470
64000.000			-40.225			-4.469
64100.000			-40.224			-4.469
64201.000			-40.222			-4.469
64301.000			-40.220			-4.469
64401.000			-40.218			-4.469
64501.000			-40.217			-4.469
64600.000			-40.215			-4.468
64700.000			-40.212			-4.468
64801.000			-40.210			-4.468
64900.000			-40.209			-4.468
65000.000			-40.207			-4.467
65102.000			-40.205			-4.467
65201.000			-40.204			-4.467
65300.000			-40.203			-4.467
65401.000			-40.202			-4.467
65500.000			-40.199			-4.467
65600.000			-40.198			-4.466
65701.000			-40.196			-4.466
65801.000			-40.194			-4.466
65901.000			-40.193			-4.466
66002.000			-40.192			-4.466
66100.000			-40.191			-4.466
66200.000			-40.188			-4.465
66301.000			-40.186			-4.465
66400.000			-40.184			-4.465
66501.000			-40.183			-4.465
66600.000			-40.181			-4.465
66701.000			-40.179			-4.464
66802.000			-40.177			-4.464
66900.000			-40.175			-4.464
67000.000			-40.173			-4.464
67101.000			-40.172			-4.464
67200.000			-40.171			-4.463
67300.000			-40.169			-4.463
67401.000			-40.169			-4.463
67501.000			-40.168			-4.463
67601.000			-40.165			-4.463
67701.000			-40.161			-4.462
67800.000			-40.160			-4.462
67900.000			-40.160			-4.462
68001.000			-40.159			-4.462
68100.000			-40.157			-4.462
68200.000			-40.155			-4.462
68302.000			-40.154			-4.462
68401.000			-40.151			-4.461
68500.000			-40.150			-4.461
68601.000			-40.149			-4.461
68700.000			-40.148			-4.461
68800.000			-40.146			-4.461
68901.000			-40.144			-4.460
69000.000			-40.143			-4.460
69101.000			-40.139			-4.460
69202.000			-40.139			-4.460
69300.000			-40.137			-4.460
69400.000			-40.136			-4.460
69501.000			-40.134			-4.459
69600.000			-40.134			-4.459
69701.000			-40.132			-4.459
69800.000			-40.130			-4.459
69901.000			-40.127			-4.459
70002.000			-40.126			-4.458
70100.000			-40.125			-4.458
70200.000			-40.124			-4.458
70301.000			-40.122			-4.458
70400.000			-40.120			-4.458
70500.000			-40.119			-4.458
70601.000			-40.116			-4.457
70701.000			-40.115			-4.457
70801.000			-40.114			-4.457
70901.000			-40.113			-4.457
71000.000			-40.112			-4.457
71100.000			-40.110			-4.457
71201.000			-40.108			-4.456
71300.000			-40.105			-4.456
71401.000			-40.104			-4.456
71502.000			-40.102			-4.456
71601.000			-40.102			-4.456
71700.000			-40.100			-4.456
71801.000			-40.099			-4.455
71900.000			-40.098			-4.455
72000.000			-40.095			-4.455
72101.000			-40.095			-4.455
72201.000			-40.093			-4.455
72301.000			-40.091			-4.455
72401.000			-40.089			-4.454
72500.000			-40.088			-4.454
72600.000			-40.087			-4.454
72701.000			-40.085			-4.454
72800.000			-40.083			-4.454
72901.000			-40.082			-4.454
73001.000			-40.080			-4.453
73101.000			-40.079			-4.453
73201.000			-40.078			-4.453
73300.000			-40.077			-4.453
73400.000			-40.075			-4.453
73501.000			-40.072			-4.452
73600.000			-40.071			-4.452
73700.000			-40.069			-4.452
73802.000			-40.068			-4.452
73901.000			-40.067			-4.452
74000.000			-40.066			-4.452
74101.000			-40.065			-4.452
74200.000			-40.062			-4.451
74300.000			-40.061			-4.451
74401.000			-40.060			-4.451
74500.000			-40.058			-4.451
74601.000			-40.057			-4.451
74702.000			-40.055			-4.451
74800.000			-40.053			-4.450
74900.000			-40.052			-4.450
75001.000			-40.051			-4.450
75100.000			-40.050			-4.450
75200.000			-40.049			-4.450
75301.000			-40.047			-4.450
75401.000			-40.046			-4.450
75501.000			-40.043			-4.449
75601.000			-40.042			-4.449
75700.000			-40.041			-4.449
75800.000			-40.039			-4.449
75901.000			-40.037			-4.449
76000.000			-40.035			-4.448
76101.000			-40.035			-4.448
76201.000			-40.033			-4.448
76301.000			-40.032			-4.448
76401.000			-40.030			-4.448
76500.000			-40.029			-4.448
76600.000			-40.026			-4.447
76701.000			-40.026			-4.447
76800.000			-40.025			-4.447
76900.000			-40.024			-4.447
77002.000			-40.022			-4.447
77101.000			-40.020			-4.447
77200.000			-40.019			-4.447
77301.000			-40.017			-4.446
77400.000			-40.016			-4.446
77500.000			-40.015			-4.446
77601.000			-40.013			-4.446
77701.000			-40.011			-4.446
77801.000			-40.009			-4.445
77902.000			-40.008			-4.445
78000.000			-40.006			-4.445
78100.000			-40.005			-4.445
78201.000			-40.004			-4.445
78300.000			-40.003			-4.445
78400.000			-40.001			-4.445
78502.000			-39.999			-4.444
78601.000			-39.998			-4.444
78701.000			-39.997			-4.444
78801.000			-39.996			-4.444
78900.000			-39.993			-4.444
79000.000			-39.992			-4.444
79101.000			-39.992			-4.444
79200.000			-39.990			-4.443
79301.000			-39.987			-4.443
79401.000			-39.986			-4.443
79501.000			-39.985			-4.443
79602.000			-39.985			-4.443
79700.000			-39.983			-4.443
79800.000			-39.983			-4.443
79901.000			-39.982			-4.442
80000.000			-39.980			-4.442
80100.000			-39.978			-4.442
80201.000			-39.976			-4.442
80301.000			-39.974			-4.442
80401.000			-39.974			-4.442
80501.000			-39.973			-4.441
80600.000			-39.971			-4.441
80700.000			-39.970			-4.441
80801.000			-39.968			-4.441
80900.000			-39.967			-4.441
81000.000			-39.965			-4.441
81101.000			-39.963			-4.440
81201.000			-39.961			-4.440
81301.000			-39.961			-4.440
81401.000			-39.960			-4.440
81500.000			-39.958			-4.440
81600.000			-39.956			-4.440
81701.000			-39.956			-4.440
81800.000			-39.954			-4.439
81900.000			-39.952			-4.439
82002.000			-39.951			-4.439
82101.000			-39.950			-4.439
82201.000			-39.949			-4.439
82301.000			-39.947			-4.439
82400.000			-39.946			-4.438
82501.000			-39.945			-4.438
82600.000			-39.944			-4.438
82700.000			-39.943			-4.438
82801.000			-39.942			-4.438
82901.000			-39.941			-4.438
83001.000			-39.938			-4.438
83101.000			-39.936			-4.437
83200.000			-39.935			-4.437
83300.000			-39.934			-4.437
83401.000			-39.934			-4.437
83500.000			-39.933			-4.437
83600.000			-39.931			-4.437
83702.000			-39.929			-4.437
83801.000			-39.928			-4.436
83901.000			-39.927			-4.436
84001.000			-39.926			-4.436
84100.000			-39.924			-4.436
84200.000			-39.923			-4.436
84301.000			-39.923			-4.436
84400.000			-39.919			-4.435
84500.000			-39.918			-4.435
84602.000			-39.918			-4.435
84701.000			-39.917			-4.435
84800.000			-39.915			-4.435
84901.000			-39.913			-4.435
85000.000			-39.912			-4.435
85100.000			-39.910			-4.434
85201.000			-39.909			-4.434
85300.000			-39.907			-4.434
85401.000			-39.907			-4.434
85502.000			-39.906			-4.434
85601.000			-39.904			-4.434
85701.000			-39.904			-4.434
85800.000			-39.903			-4.434
85900.000			-39.901			-4.433
86001.000			-39.900			-4.433
86100.000			-39.899			-4.433
86200.000			-39.897			-4.433
86302.000			-39.896			-4.433
86401.000			-39.895			-4.433
86500.000			-39.893			-4.433
86601.000			-39.893			-4.433
86700.000			-39.891			-4.432
86800.000			-39.889			-4.432
86901.000			-39.889			-4.432
87000.000			-39.887			-4.432
87100.000			-39.886			-4.432
87202.000			-39.885			-4.432
87301.000			-39.882			-4.431
87400.000			-39.882			-4.431
87501.000			-39.881			-4.431
87600.000			-39.880			-4.431
87700.000			-39.878			-4.431
87801.000			-39.877			-4.431
87900.000			-39.877			-4.431
88000.000			-39.875			-4.431
88102.000			-39.873			-4.430
88201.000			-39.872			-4.430
88300.000			-39.870			-4.430
88401.000			-39.869			-4.430
88500.000			-39.868			-4.430
88600.000			-39.867			-4.430
88701.000			-39.866			-4.430
88800.000			-39.864			-4.429
88901.000			-39.863			-4.429
89001.000			-39.861			-4.429
89101.000			-39.860			-4.429
89201.000			-39.859			-4.429
89300.000			-39.858			-4.429
89400.000			-39.857			-4.429
89501.000			-39.855			-4.428
89600.000			-39.854			-4.428
89700.000			-39.853			-4.428
89802.000			-39.852			-4.428
89901.000			-39.850			-4.428
90001.000			-39.849			-4.428
90101.000			-39.849			-4.428
90200.000			-39.848			-4.428
90300.000			-39.846			-4.427
90401.000			-39.843			-4.427
90500.000			-39.842			-4.427
90600.000			-39.842			-4.427
90702.000			-39.841			-4.427
90801.000			-39.840			-4.427
90900.000			-39.839			-4.427
91001.000			-39.837			-4.426
91100.000			-39.836			-4.426
91200.000			-39.835			-4.426
91301.000			-39.834			-4.426
91400.000			-39.833			-4.426
91500.000			-39.832			-4.426
91602.000			-39.831			-4.426
91701.000			-39.829			-4.425
91800.000			-39.828			-4.425
91901.000			-39.827			-4.425
92000.000			-39.825			-4.425
92101.000			-39.824			-4.425
92200.000			-39.824			-4.425
92300.000			-39.823			-4.425
92402.000			-39.820			-4.424
92501.000			-39.818			-4.424
92600.000			-39.818			-4.424
92701.000			-39.817			-4.424
92800.000			-39.815			-4.424
92900.000			-39.815			-4.424
93001.000			-39.814			-4.424
93100.000			-39.814			-4.424
93201.000			-39.811			-4.423
93302.000			-39.811			-4.423
93401.000			-39.809			-4.423
93500.000			-39.807			-4.423
93601.000			-39.805			-4.423
93700.000			-39.805			-4.423
93800.000			-39.805			-4.423
93901.000			-39.802			-4.422
94000.000			-39.802			-4.422
94101.000			-39.801			-4.422
94202.000			-39.799			-4.422
94300.000			-39.799			-4.422
94400.000			-39.797			-4.422
94501.000			-39.797			-4.422
94600.000			-39.795			-4.422
94700.000			-39.794			-4.422
94801.000			-39.792			-4.421
94900.000			-39.791			-4.421
95001.000			-39.790			-4.421
95102.000			-39.789			-4.421
95200.000			-39.787			-4.421
95301.000			-39.787			-4.421
95400.000			-39.785			-4.421
95500.000			-39.783			-4.420
95601.000			-39.782			-4.420
95700.000			-39.782			-4.420
95800.000			-39.781			-4.420
95902.000			-39.780			-4.420
96001.000			-39.779			-4.420
96100.000			-39.778			-4.420
96201.000			-39.777			-4.420
96300.000			-39.776			-4.420
96400.000			-39.775			-4.419
96501.000			-39.773			-4.419
96600.000			-39.772			-4.419
96701.000			-39.771			-4.419
96802.000			-39.769			-4.419
96901.000			-39.768			-4.419
97000.000			-39.766			-4.418
97101.000			-39.765			-4.418
97200.000			-39.765			-4.418
97300.000			-39.764			-4.418
97401.000			-39.763			-4.418
97500.000			-39.762			-4.418
97601.000			-39.761			-4.418
97702.000			-39.760			-4.418
97800.000			-39.759			-4.418
97900.000			-39.758			-4.418
98001.000			-39.756			-4.417
98100.000			-39.755			-4.417
98200.000			-39.753			-4.417
98301.000			-39.753			-4.417
98400.000			-39.751			-4.417
98502.000			-39.750			-4.417
98601.000			-39.750			-4.417
98700.000			-39.748			-4.416
98801.000			-39.746			-4.416
98900.000			-39.746			-4.416
99000.000			-39.744			-4.416
99101.000			-39.742			-4.416
99200.000			-39.742			-4.416
99300.000			-39.741			-4.416
99402.000			-39.740			-4.416
99501.000			-39.739			-4.415
99600.000			-39.738			-4.415
99701.000			-39.737			-4.415
99800.000			-39.736			-4.415
99900.000			-39.735			-4.415
100001.000			-39.733			-4.415
100100.000			-39.732			-4.415
100201.000			-39.730			-4.414
100302.000			-39.729			-4.414
100401.000			-39.729			-4.414
100500.000			-39.729			-4.414
100601.000			-39.727			-4.414
100700.000			-39.725			-4.414
100800.000			-39.724			-4.414
100901.000			-39.724			-4.414
101000.000			-39.722			-4.414
101101.000			-39.721			-4.413
101202.000			-39.720			-4.413
101300.000			-39.718			-4.413
101400.000			-39.717			-4.413
101501.000			-39.717			-4.413
101600.000			-39.716			-4.413
101701.000			-39.715			-4.413
101800.000			-39.714			-4.413
101900.000			-39.713			-4.413
102002.000			-39.711			-4.412
102101.000			-39.710			-4.412
102200.000			-39.709			-4.412
102301.000			-39.708			-4.412
102400.000			-39.707			-4.412
102500.000			-39.706			-4.412
102601.000			-39.704			-4.412
102700.000			-39.703			-4.411
102801.000			-39.703			-4.411
102902.000			-39.702			-4.411
103000.000			-39.700			-4.411
103100.000			-39.700			-4.411
103201.000			-39.699			-4.411
103300.000			-39.699			-4.411
103400.000			-39.697			-4.411
103501.000			-39.695			-4.411
103601.000			-39.694			-4.410
103701.000			-39.693			-4.410
103802.000			-39.692			-4.410
103900.000			-39.691			-4.410
104000.000			-39.690			-4.410
104101.000			-39.689			-4.410
104200.000			-39.688			-4.410
104300.000			-39.687			-4.410
104401.000			-39.686			-4.410
104501.000			-39.685			-4.409
104601.000			-39.683			-4.409
104701.000			-39.683			-4.409
104800.000			-39.681			-4.409
104901.000			-39.681			-4.409
105000.000			-39.680			-4.409
105100.000			-39.678			-4.409
105201.000			-39.677			-4.409
105300.000			-39.676			-4.408
105401.000			-39.675			-4.408
105502.000			-39.675			-4.408
105600.000			-39.673			-4.408
105700.000			-39.672			-4.408
105801.000			-39.670			-4.408
105900.000			-39.670			-4.408
106000.000			-39.669			-4.408
106101.000			-39.668			-4.408
106200.000			-39.667			-4.407
106301.000			-39.667			-4.407
106402.000			-39.665			-4.407
106500.000			-39.664			-4.407
106600.000			-39.663			-4.407
106701.000			-39.663			-4.407
106800.000			-39.662			-4.407
106900.000			-39.660			-4.407
107001.000			-39.659			-4.407
107100.000			-39.658			-4.406
107201.000			-39.657			-4.406
107302.000			-39.656			-4.406
107400.000			-39.654			-4.406
107500.000			-39.653			-4.406
107601.000			-39.652			-4.406
107700.000			-39.651			-4.406
107800.000			-39.650			-4.406
107901.000			-39.649			-4.405
108001.000			-39.649			-4.405
108102.000			-39.647			-4.405
108201.000			-39.647			-4.405
108300.000			-39.646			-4.405
108401.000			-39.645			-4.405
108500.000			-39.643			-4.405
108600.000			-39.642			-4.405
108701.000			-39.641			-4.405
108800.000			-39.641			-4.405
108901.000			-39.641			-4.405
109002.000			-39.640			-4.404
109101.000			-39.638			-4.404
109200.000			-39.637			-4.404
109301.000			-39.635			-4.404
109400.000			-39.635			-4.404
109500.000			-39.633			-4.404
109601.000			-39.632			-4.404
109700.000			-39.631			-4.403
109801.000			-39.631			-4.403
109902.000			-39.629			-4.403
110000.000			-39.628			-4.403
110100.000			-39.627			-4.403
110201.000			-39.626			-4.403
110300.000			-39.625			-4.403
110400.000			-39.624			-4.403
110501.000			-39.624			-4.403
110601.000			-39.623			-4.403
110701.000			-39.621			-4.402
110802.000			-39.620			-4.402
110900.000			-39.619			-4.402
111000.000			-39.617			-4.402
111101.000			-39.617			-4.402
111200.000			-39.617			-4.402
111301.000			-39.617			-4.402
111400.000			-39.613			-4.401
111501.000			-39.612			-4.401
111602.000			-39.612			-4.401
111700.000			-39.611			-4.401
111800.000			-39.611			-4.401
111901.000			-39.609			-4.401
112000.000			-39.609			-4.401
112100.000			-39.607			-4.401
112201.000			-39.606			-4.401
112301.000			-39.605			-4.401
112401.000			-39.605			-4.401
112501.000			-39.604			-4.400
112600.000			-39.603			-4.400
112700.000			-39.602			-4.400
112801.000			-39.600			-4.400
112900.000			-39.599			-4.400
113000.000			-39.599			-4.400
113101.000			-39.598			-4.400
113201.000			-39.597			-4.400
113301.000			-39.596			-4.400
113401.000			-39.595			-4.399
113500.000			-39.594			-4.399
113600.000			-39.593			-4.399
113701.000			-39.593			-4.399
113800.000			-39.591			-4.399
113900.000			-39.590			-4.399
114002.000			-39.589			-4.399
114101.000			-39.590			-4.399
114201.000			-39.589			-4.399
114301.000			-39.586			-4.398
114400.000			-39.585			-4.398
114501.000			-39.584			-4.398
114600.000			-39.584			-4.398
114700.000			-39.582			-4.398
114801.000			-39.581			-4.398
114901.000			-39.580			-4.398
115001.000			-39.580			-4.398
115101.000			-39.577			-4.397
115200.000			-39.576			-4.397
115300.000			-39.576			-4.397
115401.000			-39.576			-4.397
115500.000			-39.574			-4.397
115600.000			-39.573			-4.397
115701.000			-39.573			-4.397
115801.000			-39.571			-4.397
115901.000			-39.571			-4.397
116001.000			-39.569			-4.397
116100.000			-39.568			-4.396
116200.000			-39.568			-4.396
116301.000			-39.567			-4.396
116400.000			-39.567			-4.396
116500.000			-39.565			-4.396
116602.000			-39.565			-4.396
116701.000			-39.563			-4.396
116801.000			-39.562			-4.396
116901.000			-39.562			-4.396
117000.000			-39.560			-4.396
117100.000			-39.559			-4.395
117201.000			-39.558			-4.395
117300.000			-39.557			-4.395
117400.000			-39.556			-4.395
117502.000			-39.556			-4.395
117601.000			-39.554			-4.395
117702.000			-39.553			-4.395
117800.000			-39.552			-4.395
117900.000			-39.551			-4.395
118001.000			-39.551			-4.395
118100.000			-39.549			-4.394
118200.000			-39.548			-4.394
118301.000			-39.548			-4.394
118401.000			-39.547			-4.394
118501.000			-39.545			-4.394
118602.000			-39.545			-4.394
118700.000			-39.544			-4.394
118800.000			-39.543			-4.394
118901.000			-39.542			-4.394
119000.000			-39.541			-4.393
119100.000			-39.540			-4.393
119201.000			-39.540			-4.393
119301.000			-39.539			-4.393
119401.000			-39.538			-4.393
119501.000			-39.536			-4.393
119600.000			-39.534			-4.393
119700.000			-39.534			-4.393
119801.000			-39.534			-4.393
119900.000			-39.533			-4.393
120000.000			-39.533			-4.393
120101.000			-39.532			-4.392
120201.000			-39.530			-4.392
120301.000			-39.529			-4.392
120401.000			-39.528			-4.392
120500.000			-39.527			-4.392
120600.000			-39.526			-4.392
120701.000			-39.526			-4.392
120800.000			-39.525			-4.392
120901.000			-39.524			-4.392
121001.000			-39.523			-4.391
121101.000			-39.522			-4.391
121201.000			-39.521			-4.391
121300.000			-39.521			-4.391
121400.000			-39.520			-4.391
121501.000			-39.519			-4.391
121600.000			-39.517			-4.391
121700.000			-39.516			-4.391
121801.000			-39.516			-4.391
121901.000			-39.515			-4.391
122001.000			-39.514			-4.390
122101.000			-39.513			-4.390
122200.000			-39.512			-4.390
122300.000			-39.511			-4.390
122401.000			-39.510			-4.390
122500.000			-39.510			-4.390
122600.000			-39.508			-4.390
122702.000			-39.507			-4.390
122801.000			-39.506			-4.390
122900.000			-39.506			-4.390
123001.000			-39.506			-4.390
123100.000			-39.503			-4.389
123200.000			-39.502			-4.389
123301.000			-39.501			-4.389
123400.000			-39.500			-4.389
123500.000			-39.500			-4.389
123602.000			-39.500			-4.389
123701.000			-39.499			-4.389
123800.000			-39.497			-4.389
123901.000			-39.496			-4.388
124000.000			-39.495			-4.388
124101.000			-39.494			-4.388
124200.000			-39.493			-4.388
124300.000			-39.492			-4.388
124401.000			-39.492			-4.388
124501.000			-39.490			-4.388
124601.000			-39.490			-4.388
124701.000			-39.491			-4.388
124800.000			-39.489			-4.388
124900.000			-39.487			-4.387
125001.000			-39.486			-4.387
125100.000			-39.486			-4.387
125200.000			-39.486			-4.387
125302.000			-39.484			-4.387
125401.000			-39.484			-4.387
125501.000			-39.482			-4.387
125601.000			-39.480			-4.387
125700.000			-39.480			-4.387
125800.000			-39.480			-4.387
125901.000			-39.479			-4.387
126000.000			-39.478			-4.386
126100.000			-39.477			-4.386
126202.000			-39.476			-4.386
126301.000			-39.475			-4.386
126401.000			-39.475			-4.386
126501.000			-39.474			-4.386
126600.000			-39.474			-4.386
126700.000			-39.472			-4.386
126801.000			-39.470			-4.386
126900.000			-39.469			-4.385
127000.000			-39.470			-4.386
127102.000			-39.469			-4.385
127201.000			-39.468			-4.385
127302.000			-39.468			-4.385
127400.000			-39.467			-4.385
127500.000			-39.464			-4.385
127601.000			-39.465			-4.385
127700.000			-39.464			-4.385
127800.000			-39.464			-4.385
127901.000			-39.464			-4.385
128001.000			-39.462			-4.385
128101.000			-39.461			-4.385
128202.000			-39.458			-4.384
128300.000			-39.458			-4.384
128400.000			-39.457			-4.384
128501.000			-39.456			-4.384
128600.000			-39.456			-4.384
128700.000			-39.455			-4.384
128801.000			-39.454			-4.384
128901.000			-39.454			-4.384
129001.000			-39.452			-4.384
129101.000			-39.452			-4.384
129200.000			-39.452			-4.384
129300.000			-39.450			-4.383
129401.000			-39.449			-4.383
129500.000			-39.449			-4.383
129600.000			-39.448			-4.383
129701.000			-39.446			-4.383
129801.000			-39.446			-4.383
129901.000			-39.445			-4.383
130001.000			-39.444			-4.383
130100.000			-39.443			-4.383
130200.000			-39.442			-4.382
130301.000			-39.441			-4.382
130400.000			-39.440			-4.382
130501.000			-39.439			-4.382
130600.000			-39.439			-4.382
130701.000			-39.438			-4.382
130802.000			-39.437			-4.382
130900.000			-39.436			-4.382
131000.000			-39.436			-4.382
131101.000			-39.435			-4.382
131200.000			-39.435			-4.382
131300.000			-39.433			-4.381
131401.000			-39.433			-4.381
131501.000			-39.431			-4.381
131601.000			-39.430			-4.381
131702.000			-39.429			-4.381
131800.000			-39.429			-4.381
131900.000			-39.427			-4.381
132001.000			-39.426			-4.381
132100.000			-39.425			-4.381
132200.000			-39.425			-4.381
132301.000			-39.424			-4.380
132400.000			-39.424			-4.380
132501.000			-39.423			-4.380
132602.000			-39.421			-4.380
132700.000			-39.421			-4.380
132800.000			-39.420			-4.380
132901.000			-39.419			-4.380
133000.000			-39.418			-4.380
133100.000			-39.418			-4.380
133201.000			-39.417			-4.380
133301.000			-39.416			-4.380
133401.000			-39.415			-4.379
133502.000			-39.414			-4.379
133600.000			-39.413			-4.379
133701.000			-39.413			-4.379
133800.000			-39.412			-4.379
133900.000			-39.410			-4.379
134001.000			-39.409			-4.379
134100.000			-39.408			-4.379
134200.000			-39.409			-4.379
134302.000			-39.408			-4.379
134401.000			-39.407			-4.379
134500.000			-39.406			-4.378
134601.000			-39.405			-4.378
134700.000			-39.405			-4.378
134800.000			-39.403			-4.378
134901.000			-39.403			-4.378
135000.000			-39.401			-4.378
135100.000			-39.401			-4.378
135202.000			-39.400			-4.378
135301.000			-39.399			-4.378
135401.000			-39.398			-4.378
135501.000			-39.398			-4.378
135600.000			-39.397			-4.377
135700.000			-39.396			-4.377
135801.000			-39.395			-4.377
135900.000			-39.395			-4.377
136000.000			-39.394			-4.377
136101.000			-39.393			-4.377
136201.000			-39.391			-4.377
136301.000			-39.391			-4.377
136401.000			-39.390			-4.377
136500.000			-39.389			-4.377
136600.000			-39.388			-4.376
136701.000			-39.388			-4.376
136800.000			-39.387			-4.376
136901.000			-39.386			-4.376
137000.000			-39.387			-4.376
137100.000			-39.385			-4.376
137202.000			-39.383			-4.376
137301.000			-39.384			-4.376
137400.000			-39.382			-4.376
137501.000			-39.381			-4.376
137600.000			-39.380			-4.376
137700.000			-39.379			-4.375
137801.000			-39.379			-4.375
137900.000			-39.378			-4.375
138000.000			-39.378			-4.375
138102.000			-39.377			-4.375
138201.000			-39.377			-4.375
138301.000			-39.376			-4.375
138401.000			-39.374			-4.375
138500.000			-39.373			-4.375
138600.000			-39.371			-4.375
138701.000			-39.371			-4.375
138800.000			-39.371			-4.375
138900.000			-39.371			-4.375
139001.000			-39.371			-4.375
139101.000			-39.369			-4.374
139201.000			-39.368			-4.374
139301.000			-39.367			-4.374
139400.000			-39.366			-4.374
139500.000			-39.365			-4.374
139601.000			-39.365			-4.374
139700.000			-39.364			-4.374
139800.000			-39.363			-4.374
139901.000			-39.362			-4.374
140000.000			-39.361			-4.373
140102.000			-39.360			-4.373
140201.000			-39.360			-4.373
140300.000			-39.359			-4.373
140401.000			-39.357			-4.373
140500.000			-39.357			-4.373
140600.000			-39.356			-4.373
140701.000			-39.356			-4.373
140800.000			-39.355			-4.373
140900.000			-39.353			-4.373
141002.000			-39.353			-4.373
141101.000			-39.353			-4.373
141201.000			-39.352			-4.372
141301.000			-39.351			-4.372
141400.000			-39.350			-4.372
141500.000			-39.350			-4.372
141601.000			-39.349			-4.372
141700.000			-39.347			-4.372
141800.000			-39.347			-4.372
141901.000			-39.345			-4.372
142001.000			-39.345			-4.372
142101.000			-39.344			-4.372
142201.000			-39.344			-4.372
142300.000			-39.344			-4.372
142400.000			-39.342			-4.371
142501.000			-39.341			-4.371
142600.000			-39.341			-4.371
142700.000			-39.340			-4.371
142801.000			-39.341			-4.371
142901.000			-39.339			-4.371
143001.000			-39.338			-4.371
143101.000			-39.336			-4.371
143200.000			-39.336			-4.371
143301.000			-39.336			-4.371
143400.000			-39.335			-4.371
143500.000			-39.333			-4.370
143601.000			-39.333			-4.370
143700.000			-39.333			-4.370
143801.000			-39.332			-4.370
143902.000			-39.330			-4.370
144001.000			-39.331			-4.370
144100.000			-39.330			-4.370
144201.000			-39.327			-4.370
144300.000			-39.327			-4.370
144400.000			-39.327			-4.370
144501.000			-39.327			-4.370
144600.000			-39.327			-4.370
144700.000			-39.326			-4.370
144802.000			-39.324			-4.369
144901.000			-39.324			-4.369
145000.000			-39.324			-4.369
145101.000			-39.323			-4.369
145200.000			-39.323			-4.369
145300.000			-39.322			-4.369
145401.000			-39.320			-4.369
145500.000			-39.319			-4.369
145600.000			-39.319			-4.369
145702.000			-39.317			-4.369
145801.000			-39.316			-4.368
145901.000			-39.316			-4.368
146001.000			-39.315			-4.368
146100.000			-39.315			-4.368
146200.000			-39.314			-4.368
146301.000			-39.313			-4.368
146400.000			-39.313			-4.368
146501.000			-39.312			-4.368
146600.000			-39.311			-4.368
146701.000			-39.310			-4.368
146802.000			-39.310			-4.368
146900.000			-39.309			-4.368
147000.000			-39.308			-4.368
147101.000			-39.307			-4.367
147200.000			-39.305			-4.367
147300.000			-39.305			-4.367
147401.000			-39.305			-4.367
147500.000			-39.304			-4.367
147601.000			-39.303			-4.367
147702.000			-39.303			-4.367
147800.000			-39.303			-4.367
147900.000			-39.301			-4.367
148001.000			-39.301			-4.367
148100.000			-39.299			-4.367
148200.000			-39.298			-4.366
148301.000			-39.297			-4.366
148400.000			-39.297			-4.366
148500.000			-39.297			-4.366
148602.000			-39.296			-4.366
148701.000			-39.295			-4.366
148800.000			-39.294			-4.366
148901.000			-39.293			-4.366
149000.000			-39.293			-4.366
149100.000			-39.293			-4.366
149201.000			-39.291			-4.366
149300.000			-39.291			-4.366
149400.000			-39.290			-4.366
149501.000			-39.289			-4.365
149601.000			-39.288			-4.365
149702.000			-39.287			-4.365
149800.000			-39.287			-4.365
149900.000			-39.286			-4.365
150001.000			-39.285			-4.365
150100.000			-39.285			-4.365
150200.000			-39.284			-4.365
150301.000			-39.283			-4.365
150400.000			-39.283			-4.365
150500.000			-39.283			-4.365
150602.000			-39.282			-4.365
150701.000			-39.281			-4.365
150800.000			-39.279			-4.364
150901.000			-39.278			-4.364
151000.000			-39.278			-4.364
151100.000			-39.278			-4.364
151201.000			-39.277			-4.364
151300.000			-39.275			-4.364
151400.000			-39.275			-4.364
151502.000			-39.274			-4.364
151601.000			-39.274			-4.364
151700.000			-39.273			-4.364
151801.000			-39.273			-4.364
151900.000			-39.273			-4.364
152000.000			-39.272			-4.364
152101.000			-39.270			-4.363
152200.000			-39.269			-4.363
152300.000			-39.269			-4.363
152402.000			-39.268			-4.363
152501.000			-39.267			-4.363
152601.000			-39.266			-4.363
152701.000			-39.266			-4.363
152800.000			-39.266			-4.363
152901.000			-39.265			-4.363
153000.000			-39.263			-4.363
153100.000			-39.263			-4.363
153201.000			-39.263			-4.363
153300.000			-39.262			-4.362
153401.000			-39.260			-4.362
153502.000			-39.260			-4.362
153601.000			-39.260			-4.362
153700.000			-39.259			-4.362
153801.000			-39.258			-4.362
153900.000			-39.257			-4.362
154000.000			-39.256			-4.362
154101.000			-39.255			-4.362
154200.000			-39.254			-4.362
154300.000			-39.255			-4.362
154402.000			-39.254			-4.362
154501.000			-39.253			-4.361
154600.000			-39.252			-4.361
154701.000			-39.251			-4.361
154800.000			-39.250			-4.361
154900.000			-39.249			-4.361
155001.000			-39.250			-4.361
155100.000			-39.249			-4.361
155200.000			-39.248			-4.361
155302.000			-39.248			-4.361
155401.000			-39.247			-4.361
155501.000			-39.246			-4.361
155601.000			-39.245			-4.361
155700.000			-39.245			-4.361
155800.000			-39.244			-4.360
155901.000			-39.243			-4.360
156000.000			-39.242			-4.360
156101.000			-39.241			-4.360
156200.000			-39.239			-4.360
156301.000			-39.240			-4.360
156402.000			-39.239			-4.360
156500.000			-39.239			-4.360
156600.000			-39.238			-4.360
156701.000			-39.237			-4.360
156800.000			-39.237			-4.360
156900.000			-39.237			-4.360
157001.000			-39.235			-4.359
157100.000			-39.234			-4.359
157200.000			-39.233			-4.359
157302.000			-39.233			-4.359
157401.000			-39.231			-4.359
157500.000			-39.231			-4.359
157601.000			-39.231			-4.359
157700.000			-39.230			-4.359
157800.000			-39.230			-4.359
157901.000			-39.229			-4.359
158000.000			-39.229			-4.359
158100.000			-39.228			-4.359
158202.000			-39.227			-4.359
158301.000			-39.226			-4.358
158400.000			-39.225			-4.358
158501.000			-39.224			-4.358
158600.000			-39.224			-4.358
158700.000			-39.224			-4.358
158801.000			-39.222			-4.358
158900.000			-39.221			-4.358
159000.000			-39.220			-4.358
159102.000			-39.221			-4.358
159201.000			-39.220			-4.358
159302.000			-39.219			-4.358
159400.000			-39.218			-4.358
159500.000			-39.217			-4.357
159601.000			-39.216			-4.357
159700.000			-39.215			-4.357
159800.000			-39.215			-4.357
159901.000			-39.214			-4.357
160000.000			-39.215			-4.357
160101.000			-39.214			-4.357
160202.000			-39.212			-4.357
160300.000			-39.212			-4.357
160400.000			-39.211			-4.357
160501.000			-39.210			-4.357
160600.000			-39.209			-4.357
160700.000			-39.208			-4.356
160801.000			-39.208			-4.356
160900.000			-39.208			-4.356
161001.000			-39.206			-4.356
161102.000			-39.206			-4.356
161201.000			-39.206			-4.356
161300.000			-39.206			-4.356
161401.000			-39.205			-4.356
161500.000			-39.204			-4.356
161600.000			-39.204			-4.356
161701.000			-39.202			-4.356
161800.000			-39.201			-4.356
161901.000			-39.201			-4.356
162002.000			-39.201			-4.356
162101.000			-39.199			-4.355
162200.000			-39.199			-4.355
162301.000			-39.199			-4.355
162400.000			-39.198			-4.355
162501.000			-39.197			-4.355
162600.000			-39.196			-4.355
162700.000			-39.196			-4.355
162801.000			-39.196			-4.355
162901.000			-39.194			-4.355
163001.000			-39.194			-4.355
163101.000			-39.194			-4.355
163200.000			-39.194			-4.355
163300.000			-39.192			-4.355
163401.000			-39.192			-4.355
163500.000			-39.191			-4.355
163600.000			-39.190			-4.354
163701.000			-39.189			-4.354
163801.000			-39.189			-4.354
163901.000			-39.188			-4.354
164002.000			-39.186			-4.354
164100.000			-39.186			-4.354
164200.000			-39.185			-4.354
164301.000			-39.185			-4.354
164400.000			-39.184			-4.354
164500.000			-39.184			-4.354
164601.000			-39.183			-4.354
164700.000			-39.181			-4.353
164801.000			-39.181			-4.353
164902.000			-39.181			-4.353
165001.000			-39.180			-4.353
165100.000			-39.179			-4.353
165201.000			-39.177			-4.353
165300.000			-39.178			-4.353
165400.000			-39.177			-4.353
165501.000			-39.177			-4.353
165600.000			-39.177			-4.353
165701.000			-39.176			-4.353
165801.000			-39.174			-4.353
165901.000			-39.173			-4.353
166001.000			-39.173			-4.353
166100.000			-39.173			-4.353
166200.000			-39.172			-4.352
166301.000			-39.172			-4.352
166400.000			-39.170			-4.352
166500.000			-39.169			-4.352
166601.000			-39.169			-4.352
166700.000			-39.169			-4.352
166801.000			-39.168			-4.352
166902.000			-39.167			-4.352
167001.000			-39.167			-4.352
167100.000			-39.166			-4.352
167201.000			-39.165			-4.352
167300.000			-39.165			-4.352
167400.000			-39.165			-4.352
167501.000			-39.165			-4.352
167600.000			-39.162			-4.351
167700.000			-39.162			-4.351
167802.000			-39.161			-4.351
167901.000			-39.161			-4.351
168000.000			-39.160			-4.351
168101.000			-39.160			-4.351
168200.000			-39.160			-4.351
168300.000			-39.156			-4.351
168401.000			-39.157			-4.351
168500.000			-39.157			-4.351
168600.000			-39.157			-4.351
168702.000			-39.157			-4.351
168801.000			-39.155			-4.351
168902.000			-39.154			-4.350
169000.000			-39.154			-4.350
169100.000			-39.152			-4.350
169201.000			-39.152			-4.350
169300.000			-39.152			-4.350
169400.000			-39.152			-4.350
169501.000			-39.151			-4.350
169600.000			-39.150			-4.350
169701.000			-39.150			-4.350
169802.000			-39.148			-4.350
169901.000			-39.147			-4.350
170000.000			-39.147			-4.350
170101.000			-39.148			-4.350
170200.000			-39.147			-4.350
170300.000			-39.146			-4.350
170401.000			-39.145			-4.349
170500.000			-39.143			-4.349
170600.000			-39.142			-4.349
170702.000			-39.141			-4.349
170801.000			-39.141			-4.349
170900.000			-39.141			-4.349
171001.000			-39.141			-4.349
171100.000			-39.141			-4.349
171200.000			-39.140			-4.349
171301.000			-39.137			-4.349
171400.000			-39.136			-4.348
171500.000			-39.137			-4.349
171602.000			-39.137			-4.349
171701.000			-39.136			-4.348
171800.000			-39.135			-4.348
171901.000			-39.135			-4.348
172000.000			-39.134			-4.348
172101.000			-39.134			-4.348
172200.000			-39.133			-4.348
172300.000			-39.131			-4.348
172401.000			-39.132			-4.348
172501.000			-39.132			-4.348
172601.000			-39.131			-4.348
172701.000			-39.129			-4.348
172800.000			-39.129			-4.348
172900.000			-39.129			-4.348
173001.000			-39.127			-4.347
173100.000			-39.127			-4.347
173200.000			-39.127			-4.347
173301.000			-39.126			-4.347
173400.000			-39.125			-4.347
173501.000			-39.125			-4.347
173602.000			-39.124			-4.347
173700.000			-39.123			-4.347
173800.000			-39.123			-4.347
173901.000			-39.123			-4.347
174000.000			-39.121			-4.347
174100.000			-39.120			-4.347
174201.000			-39.120			-4.347
174300.000			-39.120			-4.347
174401.000			-39.119			-4.347
174502.000			-39.118			-4.346
174600.000			-39.118			-4.346
174700.000			-39.119			-4.347
174801.000			-39.117			-4.346
174900.000			-39.116			-4.346
175000.000			-39.115			-4.346
175101.000			-39.114			-4.346
175200.000			-39.114			-4.346
175302.000			-39.112			-4.346
175401.000			-39.112			-4.346
175501.000			-39.113			-4.346
175601.000			-39.112			-4.346
175700.000			-39.111			-4.346
175800.000			-39.110			-4.346
175901.000			-39.109			-4.345
176000.000			-39.109			-4.345
176100.000			-39.108			-4.345
176201.000			-39.109			-4.345
176301.000			-39.107			-4.345
176401.000			-39.107			-4.345
176501.000			-39.105			-4.345
176600.000			-39.104			-4.345
176700.000			-39.103			-4.345
176801.000			-39.102			-4.345
176900.000			-39.102			-4.345
177000.000			-39.102			-4.345
177101.000			-39.101			-4.345
177201.000			-39.101			-4.345
177301.000			-39.101			-4.345
177401.000			-39.099			-4.344
177500.000			-39.099			-4.344
177600.000			-39.099			-4.344
177701.000			-39.098			-4.344
177800.000			-39.097			-4.344
177900.000			-39.096			-4.344
178001.000			-39.095			-4.344
178101.000			-39.095			-4.344
178201.000			-39.095			-4.344
178302.000			-39.095			-4.344
178400.000			-39.094			-4.344
178501.000			-39.093			-4.344
178600.000			-39.093			-4.344
178700.000			-39.091			-4.343
178801.000			-39.090			-4.343
178900.000			-39.090			-4.343
179000.000			-39.090			-4.343
179102.000			-39.088			-4.343
179201.000			-39.088			-4.343
179301.000			-39.088			-4.343
179401.000			-39.088			-4.343
179500.000			-39.088			-4.343
179600.000			-39.087			-4.343
179701.000			-39.086			-4.343
179800.000			-39.084			-4.343
179900.000			-39.084			-4.343
180001.000			-39.084			-4.343
180101.000			-39.083			-4.343
180201.000			-39.081			-4.342
180302.000			-39.081			-4.342
180400.000			-39.081			-4.342
180500.000			-39.080			-4.342
180601.000			-39.080			-4.342
180700.000			-39.080			-4.342
180800.000			-39.079			-4.342
180901.000			-39.078			-4.342
181000.000			-39.077			-4.342
181101.000			-39.077			-4.342
181202.000			-39.076			-4.342
181301.000			-39.076			-4.342
181400.000			-39.076			-4.342
181501.000			-39.072			-4.341
181600.000			-39.072			-4.341
181701.000			-39.073			-4.341
181800.000			-39.073			-4.341
181900.000			-39.073			-4.341
182001.000			-39.072			-4.341
182101.000			-39.071			-4.341
182201.000			-39.070			-4.341
182301.000			-39.070			-4.341
182400.000			-39.071			-4.341
182500.000			-39.069			-4.341
182601.000			-39.068			-4.341
182700.000			-39.068			-4.341
182800.000			-39.068			-4.341
182901.000			-39.067			-4.341
183001.000			-39.065			-4.341
183101.000			-39.065			-4.341
183202.000			-39.064			-4.340
183300.000			-39.063			-4.340
183400.000			-39.063			-4.340
183501.000			-39.062			-4.340
183600.000			-39.062			-4.340
183700.000			-39.060			-4.340
183801.000			-39.061			-4.340
183900.000			-39.061			-4.340
184001.000			-39.060			-4.340
184102.000			-39.059			-4.340
184200.000			-39.059			-4.340
184300.000			-39.058			-4.340
184401.000			-39.057			-4.340
184500.000			-39.057			-4.340
184600.000			-39.056			-4.340
184701.000			-39.055			-4.339
184800.000			-39.055			-4.339
184902.000			-39.055			-4.339
185001.000			-39.054			-4.339
185101.000			-39.052			-4.339
185201.000			-39.052			-4.339
185300.000			-39.051			-4.339
185400.000			-39.052			-4.339
185501.000			-39.050			-4.339
185600.000			-39.048			-4.339
185700.000			-39.048			-4.339
185801.000			-39.049			-4.339
185901.000			-39.047			-4.339
186001.000			-39.046			-4.338
186102.000			-39.045			-4.338
186200.000			-39.046			-4.338
186300.000			-39.045			-4.338
186401.000			-39.045			-4.338
186500.000			-39.044			-4.338
186600.000			-39.043			-4.338
186701.000			-39.043			-4.338
186800.000			-39.042			-4.338
186901.000			-39.042			-4.338
187002.000			-39.041			-4.338
187100.000			-39.040			-4.338
187200.000			-39.039			-4.338
187301.000			-39.039			-4.338
187400.000			-39.040			-4.338
187500.000			-39.039			-4.338
187601.000			-39.038			-4.338
187700.000			-39.038			-4.338
187800.000			-39.038			-4.338
187902.000			-39.036			-4.337
188001.000			-39.034			-4.337
188101.000			-39.034			-4.337
188200.000			-39.034			-4.337
188300.000			-39.034			-4.337
188401.000			-39.033			-4.337
188500.000			-39.032			-4.337
188600.000			-39.032			-4.337
188701.000			-39.032			-4.337
188801.000			-39.029			-4.337
188901.000			-39.028			-4.336
189001.000			-39.030			-4.337
189100.000			-39.029			-4.337
189200.000			-39.028			-4.336
189301.000			-39.027			-4.336
189400.000			-39.027			-4.336
189500.000			-39.027			-4.336
189601.000			-39.027			-4.336
189700.000			-39.026			-4.336
189801.000			-39.026			-4.336
189902.000			-39.025			-4.336
190000.000			-39.024			-4.336
190100.000			-39.024			-4.336
190201.000			-39.022			-4.336
190300.000			-39.022			-4.336
190400.000			-39.021			-4.336
190501.000			-39.020			-4.336
190600.000			-39.020			-4.336
190701.000			-39.020			-4.336
190802.000			-39.019			-4.335
190901.000			-39.018			-4.335
191000.000			-39.017			-4.335
191101.000			-39.016			-4.335
191200.000			-39.016			-4.335
191301.000			-39.017			-4.335
191400.000			-39.017			-4.335
191500.000			-39.017			-4.335
191602.000			-39.015			-4.335
191701.000			-39.013			-4.335
191801.000			-39.014			-4.335
191901.000			-39.013			-4.335
192000.000			-39.012			-4.335
192100.000			-39.011			-4.335
192201.000			-39.010			-4.334
192300.000			-39.010			-4.334
192400.000			-39.010			-4.334
192501.000			-39.010			-4.334
192601.000			-39.009			-4.334
192701.000			-39.008			-4.334
192801.000			-39.008			-4.334
192900.000			-39.006			-4.334
193000.000			-39.007			-4.334
193101.000			-39.007			-4.334
193200.000			-39.005			-4.334
193300.000			-39.004			-4.334
193401.000			-39.003			-4.334
193501.000			-39.003			-4.334
193601.000			-39.002			-4.334
193701.000			-39.001			-4.333
193800.000			-39.001			-4.333
193900.000			-39.000			-4.333
194001.000			-39.000			-4.333
194100.000			-38.999			-4.333
194200.000			-38.998			-4.333
194301.000			-38.998			-4.333
194400.000			-38.997			-4.333
194502.000			-38.997			-4.333
194601.000			-38.996			-4.333
194701.000			-38.995			-4.333
194801.000			-38.995			-4.333
194900.000			-38.994			-4.333
195000.000			-38.994			-4.333
195101.000			-38.993			-4.333
195200.000			-38.993			-4.333
195300.000			-38.992			-4.332
195401.000			-38.991			-4.332
195501.000			-38.991			-4.332
195601.000			-38.990			-4.332
195702.000			-38.989			-4.332
195800.000			-38.989			-4.332
195900.000			-38.988			-4.332
196001.000			-38.987			-4.332
196100.000			-38.989			-4.332
196200.000			-38.988			-4.332
196301.000			-38.986			-4.332
196400.000			-38.986			-4.332
196500.000			-38.985			-4.332
196602.000			-38.984			-4.332
196701.000			-38.983			-4.331
196800.000			-38.983			-4.331
196901.000			-38.982			-4.331
197000.000			-38.981			-4.331
197100.000			-38.981			-4.331
197201.000			-38.981			-4.331
197300.000			-38.981			-4.331
197400.000			-38.981			-4.331
197501.000			-38.980			-4.331
197601.000			-38.979			-4.331
197702.000			-38.979			-4.331
197801.000			-38.979			-4.331
197900.000			-38.978			-4.331
198001.000			-38.977			-4.331
198100.000			-38.976			-4.331
198200.000			-38.976			-4.331
198301.000			-38.976			-4.331
198400.000			-38.974			-4.330
198500.000			-38.974			-4.330
198602.000			-38.973			-4.330
198701.000			-38.973			-4.330
198801.000			-38.973			-4.330
198901.000			-38.973			-4.330
199000.000			-38.971			-4.330
199100.000			-38.970			-4.330
199201.000			-38.970			-4.330
199300.000			-38.970			-4.330
199400.000			-38.969			-4.330
199501.000			-38.968			-4.330
199600.000			-38.967			-4.330
199701.000			-38.967			-4.330
199802.000			-38.966			-4.330
199901.000			-38.965			-4.329
200000.000			-38.966			-4.330
200101.000			-38.965			-4.329
200200.000			-38.964			-4.329
200300.000			-38.964			-4.329
200401.000			-38.962			-4.329
200500.000			-38.963			-4.329
200600.000			-38.964			-4.329
200702.000			-38.963			-4.329
200801.000			-38.962			-4.329
200901.000			-38.961			-4.329
201000.000			-38.960			-4.329
201100.000			-38.960			-4.329
201201.000			-38.958			-4.329
201300.000			-38.958			-4.329
201400.000			-38.958			-4.329
201501.000			-38.957			-4.329
201601.000			-38.956			-4.328
201701.000			-38.957			-4.329
201802.000			-38.956			-4.328
201900.000			-38.955			-4.328
202000.000			-38.954			-4.328
202101.000			-38.953			-4.328
202200.000			-38.954			-4.328
202300.000			-38.954			-4.328
202401.000			-38.953			-4.328
202500.000			-38.952			-4.328
202601.000			-38.951			-4.328
202702.000			-38.952			-4.328
202800.000			-38.951			-4.328
202900.000			-38.950			-4.328
203001.000			-38.950			-4.328
203100.000			-38.950			-4.328
203200.000			-38.949			-4.328
203301.000			-38.948			-4.328
203400.000			-38.947			-4.327
203501.000			-38.947			-4.327
203602.000			-38.946			-4.327
203701.000			-38.946			-4.327
203800.000			-38.945			-4.327
203901.000			-38.943			-4.327
204000.000			-38.943			-4.327
204101.000			-38.944			-4.327
204200.000			-38.943			-4.327
204300.000			-38.943			-4.327
204401.000			-38.943			-4.327
204501.000			-38.942			-4.327
204601.000			-38.941			-4.327
204701.000			-38.940			-4.327
204800.000			-38.941			-4.327
204900.000			-38.939			-4.327
205001.000			-38.939			-4.327
205100.000			-38.939			-4.327
205200.000			-38.937			-4.326
205301.000			-38.937			-4.326
205401.000			-38.937			-4.326
205501.000			-38.936			-4.326
205602.000			-38.936			-4.326
205700.000			-38.935			-4.326
205800.000			-38.934			-4.326
205901.000			-38.934			-4.326
206000.000			-38.935			-4.326
206100.000			-38.934			-4.326
206201.000			-38.932			-4.326
206300.000			-38.931			-4.326
206401.000			-38.931			-4.326
206502.000			-38.931			-4.326
206601.000			-38.931			-4.326
206700.000			-38.930			-4.326
206801.000			-38.929			-4.325
206900.000			-38.929			-4.325
207000.000			-38.929			-4.325
207101.000			-38.928			-4.325
207200.000			-38.927			-4.325
207301.000			-38.927			-4.325
207401.000			-38.926			-4.325
207501.000			-38.925			-4.325
207601.000			-38.925			-4.325
207700.000			-38.925			-4.325
207800.000			-38.922			-4.325
207901.000			-38.922			-4.325
208000.000			-38.921			-4.325
208100.000			-38.920			-4.324
208201.000			-38.921			-4.325
208301.000			-38.922			-4.325
208401.000			-38.921			-4.325
208501.000			-38.920			-4.324
208600.000			-38.919			-4.324
208700.000			-38.918			-4.324
208801.000			-38.918			-4.324
208900.000			-38.919			-4.324
209000.000			-38.918			-4.324
209101.000			-38.916			-4.324
209200.000			-38.917			-4.324
209301.000			-38.916			-4.324
209402.000			-38.915			-4.324
209500.000			-38.914			-4.324
209600.000			-38.914			-4.324
209701.000			-38.914			-4.324
209800.000			-38.913			-4.324
209900.000			-38.912			-4.324
210001.000			-38.911			-4.323
210100.000			-38.912			-4.324
210201.000			-38.911			-4.323
210302.000			-38.910			-4.323
210401.000			-38.909			-4.323
210501.000			-38.909			-4.323
210600.000			-38.909			-4.323
210700.000			-38.908			-4.323
210801.000			-38.906			-4.323
210900.000			-38.906			-4.323
211000.000			-38.906			-4.323
211101.000			-38.905			-4.323
211201.000			-38.905			-4.323
211301.000			-38.905			-4.323
211401.000			-38.904			-4.323
211500.000			-38.904			-4.323
211600.000			-38.903			-4.323
211701.000			-38.902			-4.322
211800.000			-38.902			-4.322
211900.000			-38.902			-4.322
212001.000			-38.901			-4.322
212101.000			-38.900			-4.322
212201.000			-38.900			-4.322
212301.000			-38.900			-4.322
212400.000			-38.899			-4.322
212500.000			-38.898			-4.322
212601.000			-38.898			-4.322
212700.000			-38.897			-4.322
212800.000			-38.897			-4.322
212901.000			-38.896			-4.322
213001.000			-38.897			-4.322
213101.000			-38.895			-4.322
213202.000			-38.894			-4.322
213300.000			-38.894			-4.322
213400.000			-38.894			-4.322
213501.000			-38.894			-4.322
213600.000			-38.893			-4.321
213701.000			-38.893			-4.321
213800.000			-38.892			-4.321
213900.000			-38.891			-4.321
214002.000			-38.890			-4.321
214101.000			-38.890			-4.321
214201.000			-38.891			-4.321
214301.000			-38.890			-4.321
214400.000			-38.889			-4.321
214500.000			-38.888			-4.321
214601.000			-38.888			-4.321
214700.000			-38.887			-4.321
214800.000			-38.886			-4.321
214901.000			-38.886			-4.321
215001.000			-38.885			-4.321
215101.000			-38.884			-4.320
215202.000			-38.884			-4.320
215300.000			-38.884			-4.320
215400.000			-38.884			-4.320
215501.000			-38.884			-4.320
215600.000			-38.883			-4.320
215700.000			-38.882			-4.320
215801.000			-38.881			-4.320
215900.000			-38.881			-4.320
216001.000			-38.880			-4.320
216102.000			-38.879			-4.320
216200.000			-38.879			-4.320
216300.000			-38.879			-4.320
216401.000			-38.879			-4.320
216500.000			-38.879			-4.320
216600.000			-38.878			-4.320
216701.000			-38.878			-4.320
216800.000			-38.877			-4.320
216901.000			-38.876			-4.320
217001.000			-38.876			-4.320
217101.000			-38.876			-4.320
217201.000			-38.873			-4.319
217300.000			-38.872			-4.319
217400.000			-38.872			-4.319
217501.000			-38.872			-4.319
217600.000			-38.872			-4.319
217700.000			-38.871			-4.319
217801.000			-38.871			-4.319
217901.000			-38.871			-4.319
218001.000			-38.871			-4.319
218102.000			-38.870			-4.319
218200.000			-38.868			-4.319
218300.000			-38.868			-4.319
218401.000			-38.868			-4.319
218500.000			-38.868			-4.319
218600.000			-38.868			-4.319
218701.000			-38.866			-4.318
218800.000			-38.866			-4.318
218901.000			-38.865			-4.318
219002.000			-38.865			-4.318
219101.000			-38.865			-4.318
219200.000			-38.864			-4.318
219301.000			-38.864			-4.318
219400.000			-38.862			-4.318
219500.000			-38.861			-4.318
219601.000			-38.862			-4.318
219700.000			-38.862			-4.318
219800.000			-38.862			-4.318
219902.000			-38.862			-4.318
220001.000			-38.861			-4.318
220102.000			-38.861			-4.318
220200.000			-38.859			-4.318
220300.000			-38.859			-4.318
220401.000			-38.859			-4.318
220500.000			-38.859			-4.318
220600.000			-38.858			-4.318
220701.000			-38.857			-4.317
220800.000			-38.857			-4.317
220901.000			-38.855			-4.317
221002.000			-38.855			-4.317
221100.000			-38.855			-4.317
221200.000			-38.854			-4.317
221301.000			-38.854			-4.317
221400.000			-38.855			-4.317
221500.000			-38.853			-4.317
221601.000			-38.853			-4.317
221700.000			-38.852			-4.317
221801.000			-38.851			-4.317
221902.000			-38.851			-4.317
222001.000			-38.851			-4.317
222100.000			-38.850			-4.317
222201.000			-38.850			-4.317
222300.000			-38.849			-4.317
222400.000			-38.848			-4.316
222501.000			-38.848			-4.316
222600.000			-38.848			-4.316
222701.000			-38.848			-4.316
222802.000			-38.846			-4.316
222901.000			-38.846			-4.316
223000.000			-38.845			-4.316
223101.000			-38.845			-4.316
223200.000			-38.843			-4.316
223301.000			-38.843			-4.316
223400.000			-38.843			-4.316
223500.000			-38.841			-4.316
223601.000			-38.842			-4.316
223701.000			-38.843			-4.316
223801.000			-38.840			-4.316
223902.000			-38.841			-4.316
224000.000			-38.841			-4.316
224100.000			-38.841			-4.316
224201.000			-38.839			-4.315
224300.000			-38.838			-4.315
224400.000			-38.838			-4.315
224501.000			-38.837			-4.315
224600.000			-38.836			-4.315
224701.000			-38.835			-4.315
224802.000			-38.835			-4.315
224900.000			-38.835			-4.315
225000.000			-38.835			-4.315
225101.000			-38.835			-4.315
225200.000			-38.835			-4.315
225300.000			-38.834			-4.315
225401.000			-38.832			-4.315
225500.000			-38.832			-4.315
225601.000			-38.831			-4.315
225702.000			-38.830			-4.314
225801.000			-38.831			-4.315
225900.000			-38.831			-4.315
226001.000			-38.829			-4.314
226100.000			-38.828			-4.314
226200.000			-38.828			-4.314
226301.000			-38.829			-4.314
226400.000			-38.828			-4.314
226501.000			-38.827			-4.314
226601.000			-38.827			-4.314
226701.000			-38.827			-4.314
226801.000			-38.827			-4.314
226900.000			-38.825			-4.314
227000.000			-38.824			-4.314
227101.000			-38.825			-4.314
227200.000			-38.824			-4.314
227300.000			-38.824			-4.314
227401.000			-38.823			-4.314
227500.000			-38.823			-4.314
227601.000			-38.823			-4.314
227702.000			-38.821			-4.313
227800.000			-38.820			-4.313
227900.000			-38.820			-4.313
228001.000			-38.820			-4.313
228100.000			-38.819			-4.313
228200.000			-38.819			-4.313
228301.000			-38.819			-4.313
228400.000			-38.818			-4.313
228501.000			-38.818			-4.313
228602.000			-38.817			-4.313
228701.000			-38.816			-4.313
228800.000			-38.816			-4.313
228901.000			-38.816			-4.313
229000.000			-38.816			-4.313
229100.000			-38.815			-4.313
229201.000			-38.815			-4.313
229300.000			-38.814			-4.313
229400.000			-38.814			-4.313
229502.000			-38.812			-4.312
229601.000			-38.813			-4.313
229701.000			-38.812			-4.312
229800.000			-38.811			-4.312
229900.000			-38.811			-4.312
230001.000			-38.809			-4.312
230100.000			-38.809			-4.312
230200.000			-38.809			-4.312
230301.000			-38.808			-4.312
230401.000			-38.808			-4.312
230501.000			-38.808			-4.312
230602.000			-38.807			-4.312
230700.000			-38.806			-4.312
230800.000			-38.806			-4.312
230901.000			-38.806			-4.312
231000.000			-38.806			-4.312
231100.000			-38.804			-4.312
231201.000			-38.803			-4.311
231300.000			-38.804			-4.312
231401.000			-38.804			-4.312
231502.000			-38.803			-4.311
231600.000			-38.802			-4.311
231700.000			-38.803			-4.311
231801.000			-38.801			-4.311
231900.000			-38.800			-4.311
232000.000			-38.800			-4.311
232101.000			-38.801			-4.311
232200.000			-38.800			-4.311
232301.000			-38.800			-4.311
232402.000			-38.800			-4.311
232500.000			-38.799			-4.311
232600.000			-38.797			-4.311
232701.000			-38.797			-4.311
232800.000			-38.797			-4.311
232901.000			-38.797			-4.311
233000.000			-38.796			-4.311
233100.000			-38.795			-4.311
233202.000			-38.795			-4.311
233301.000			-38.794			-4.310
233401.000			-38.794			-4.310
233501.000			-38.794			-4.310
233600.000			-38.793			-4.310
233700.000			-38.792			-4.310
233801.000			-38.792			-4.310
233900.000			-38.792			-4.310
234000.000			-38.792			-4.310
234101.000			-38.791			-4.310
234201.000			-38.791			-4.310
234301.000			-38.790			-4.310
234401.000			-38.790			-4.310
234500.000			-38.790			-4.310
234600.000			-38.789			-4.310
234701.000			-38.787			-4.310
234800.000			-38.786			-4.310
234900.000			-38.787			-4.310
235001.000			-38.786			-4.310
235100.000			-38.787			-4.310
235201.000			-38.787			-4.310
235302.000			-38.786			-4.310
235401.000			-38.784			-4.309
235500.000			-38.784			-4.309
235601.000			-38.784			-4.309
235700.000			-38.783			-4.309
235800.000			-38.783			-4.309
235901.000			-38.782			-4.309
236000.000			-38.781			-4.309
236101.000			-38.781			-4.309
236201.000			-38.781			-4.309
236301.000			-38.781			-4.309
236401.000			-38.780			-4.309
236500.000			-38.780			-4.309
236600.000			-38.779			-4.309
236701.000			-38.779			-4.309
236800.000			-38.778			-4.309
236900.000			-38.777			-4.309
237001.000			-38.778			-4.309
237101.000			-38.778			-4.309
237201.000			-38.777			-4.309
237302.000			-38.775			-4.308
237400.000			-38.774			-4.308
237500.000			-38.775			-4.308
237601.000			-38.773			-4.308
237700.000			-38.773			-4.308
237800.000			-38.773			-4.308
237901.000			-38.772			-4.308
238000.000			-38.771			-4.308
238100.000			-38.771			-4.308
238202.000			-38.772			-4.308
238301.000			-38.771			-4.308
238400.000			-38.770			-4.308
238501.000			-38.770			-4.308
238600.000			-38.770			-4.308
238700.000			-38.769			-4.308
238801.000			-38.768			-4.308
238900.000			-38.768			-4.308
239000.000			-38.768			-4.308
239101.000			-38.766			-4.307
239201.000			-38.766			-4.307
239302.000			-38.767			-4.307
239400.000			-38.766			-4.307
239500.000			-38.765			-4.307
239601.000			-38.765			-4.307
239700.000			-38.764			-4.307
239800.000			-38.762			-4.307
239901.000			-38.762			-4.307
240000.000			-38.763			-4.307
240100.000			-38.762			-4.307
240202.000			-38.762			-4.307
240301.000			-38.761			-4.307
240400.000			-38.761			-4.307
240501.000			-38.760			-4.307
240600.000			-38.759			-4.307
240700.000			-38.758			-4.306
240801.000			-38.758			-4.306
240900.000			-38.758			-4.306
241000.000			-38.757			-4.306
241101.000			-38.757			-4.306
241201.000			-38.757			-4.306
241301.000			-38.757			-4.306
241401.000			-38.757			-4.306
241500.000			-38.757			-4.306
241600.000			-38.757			-4.306
241701.000			-38.756			-4.306
241800.000			-38.755			-4.306
241900.000			-38.755			-4.306
242001.000			-38.753			-4.306
242101.000			-38.752			-4.306
242201.000			-38.752			-4.306
242302.000			-38.752			-4.306
242400.000			-38.751			-4.306
242501.000			-38.750			-4.306
242600.000			-38.751			-4.306
242700.000			-38.751			-4.306
242801.000			-38.749			-4.305
242900.000			-38.749			-4.305
243000.000			-38.749			-4.305
243102.000			-38.748			-4.305
243201.000			-38.748			-4.305
243301.000			-38.748			-4.305
243401.000			-38.748			-4.305
243500.000			-38.746			-4.305
243600.000			-38.745			-4.305
243701.000			-38.745			-4.305
243800.000			-38.746			-4.305
243900.000			-38.745			-4.305
244001.000			-38.744			-4.305
244101.000			-38.743			-4.305
244201.000			-38.743			-4.305
244301.000			-38.744			-4.305
244400.000			-38.743			-4.305
244500.000			-38.741			-4.305
244601.000			-38.741			-4.305
244700.000			-38.740			-4.304
244800.000			-38.740			-4.304
244901.000			-38.739			-4.304
245001.000			-38.738			-4.304
245101.000			-38.738			-4.304
245202.000			-38.739			-4.304
245300.000			-38.738			-4.304
245400.000			-38.737			-4.304
245501.000			-38.737			-4.304
245600.000			-38.737			-4.304
245701.000			-38.736			-4.304
245800.000			-38.736			-4.304
245900.000			-38.735			-4.304
246002.000			-38.735			-4.304
246101.000			-38.734			-4.304
246201.000			-38.734			-4.304
246301.000			-38.734			-4.304
246400.000			-38.732			-4.304
246500.000			-38.733			-4.304
246601.000			-38.732			-4.304
246700.000			-38.731			-4.303
246800.000			-38.731			-4.303
246901.000			-38.731			-4.303
247001.000			-38.731			-4.303
247101.000			-38.730			-4.303
247201.000			-38.730			-4.303
247300.000			-38.730			-4.303
247400.000			-38.728			-4.303
247501.000			-38.728			-4.303
247600.000			-38.728			-4.303
247700.000			-38.728			-4.303
247801.000			-38.727			-4.303
247901.000			-38.725			-4.303
248001.000			-38.725			-4.303
248102.000			-38.726			-4.303
248200.000			-38.725			-4.303
248300.000			-38.724			-4.303
248401.000			-38.724			-4.303
248500.000			-38.724			-4.303
248600.000			-38.723			-4.303
248701.000			-38.723			-4.303
248800.000			-38.723			-4.303
248902.000			-38.723			-4.303
249001.000			-38.721			-4.302
249101.000			-38.720			-4.302
249201.000			-38.721			-4.302
249300.000			-38.721			-4.302
249400.000			-38.719			-4.302
249501.000			-38.720			-4.302
249600.000			-38.719			-4.302
249700.000			-38.718			-4.302
249801.000			-38.718			-4.302
249901.000			-38.718			-4.302
250001.000			-38.718			-4.302
250102.000			-38.717			-4.302
250200.000			-38.717			-4.302
250300.000			-38.716			-4.302
250401.000			-38.716			-4.302
250500.000			-38.716			-4.302
250600.000			-38.716			-4.302
250701.000			-38.715			-4.302
250800.000			-38.714			-4.302
250901.000			-38.713			-4.301
251002.000			-38.712			-4.301
251100.000			-38.712			-4.301
251200.000			-38.713			-4.301
251301.000			-38.712			-4.301
251400.000			-38.711			-4.301
251500.000			-38.710			-4.301
251601.000			-38.710			-4.301
251700.000			-38.710			-4.301
251801.000			-38.709			-4.301
251902.000			-38.708			-4.301
252001.000			-38.708			-4.301
252101.000			-38.707			-4.301
252200.000			-38.708			-4.301
252300.000			-38.709			-4.301
252401.000			-38.707			-4.301
252500.000			-38.706			-4.301
252600.000			-38.706			-4.301
252701.000			-38.706			-4.301
252801.000			-38.705			-4.301
252901.000			-38.704			-4.300
253001.000			-38.704			-4.300
253100.000			-38.704			-4.300
253200.000			-38.704			-4.300
253301.000			-38.703			-4.300
253400.000			-38.702			-4.300
253500.000			-38.702			-4.300
253601.000			-38.702			-4.300
253701.000			-38.701			-4.300
253801.000			-38.700			-4.300
253902.000			-38.700			-4.300
254000.000			-38.700			-4.300
254100.000			-38.699			-4.300
254201.000			-38.699			-4.300
254300.000			-38.699			-4.300
254400.000			-38.698			-4.300
254501.000			-38.697			-4.300
254600.000			-38.697			-4.300
254701.000			-38.696			-4.300
254802.000			-38.696			-4.300
254901.000			-38.696			-4.300
255000.000			-38.696			-4.300
255101.000			-38.694			-4.299
255200.000			-38.694			-4.299
255301.000			-38.693			-4.299
255400.000			-38.692			-4.299
255500.000			-38.693			-4.299
255601.000			-38.693			-4.299
255701.000			-38.692			-4.299
255801.000			-38.693			-4.299
255901.000			-38.692			-4.299
256000.000			-38.690			-4.299
256100.000			-38.690			-4.299
256201.000			-38.689			-4.299
256300.000			-38.690			-4.299
256400.000			-38.690			-4.299
256501.000			-38.690			-4.299
256600.000			-38.687			-4.299
256701.000			-38.688			-4.299
256802.000			-38.687			-4.299
256900.000			-38.686			-4.298
257000.000			-38.686			-4.298
257101.000			-38.685			-4.298
257200.000			-38.686			-4.298
257300.000			-38.685			-4.298
257401.000			-38.684			-4.298
257500.000			-38.684			-4.298
257600.000			-38.684			-4.298
257702.000			-38.683			-4.298
257801.000			-38.682			-4.298
257900.000			-38.682			-4.298
258001.000			-38.681			-4.298
258100.000			-38.681			-4.298
258200.000			-38.681			-4.298
258301.000			-38.681			-4.298
258400.000			-38.681			-4.298
258501.000			-38.680			-4.298
258601.000			-38.680			-4.298
258701.000			-38.680			-4.298
258802.000			-38.678			-4.298
258900.000			-38.677			-4.297
259000.000			-38.677			-4.297
259101.000			-38.678			-4.298
259200.000			-38.677			-4.297
259300.000			-38.676			-4.297
259401.000			-38.676			-4.297
259500.000			-38.676			-4.297
259600.000			-38.675			-4.297
259702.000			-38.675			-4.297
259801.000			-38.674			-4.297
259900.000			-38.673			-4.297
260001.000			-38.674			-4.297
260100.000			-38.673			-4.297
260200.000			-38.673			-4.297
260301.000			-38.672			-4.297
260400.000			-38.670			-4.297
260500.000			-38.671			-4.297
260602.000			-38.670			-4.297
260701.000			-38.670			-4.297
260801.000			-38.670			-4.297
260901.000			-38.668			-4.296
261000.000			-38.668			-4.296
261100.000			-38.667			-4.296
261201.000			-38.666			-4.296
261300.000			-38.666			-4.296
261400.000			-38.667			-4.296
261501.000			-38.667			-4.296
261601.000			-38.667			-4.296
261702.000			-38.665			-4.296
261801.000			-38.664			-4.296
261900.000			-38.664			-4.296
262001.000			-38.664			-4.296
262100.000			-38.663			-4.296
262200.000			-38.662			-4.296
262301.000			-38.663			-4.296
262400.000			-38.661			-4.296
262500.000			-38.661			-4.296
262602.000			-38.662			-4.296
262701.000			-38.662			-4.296
262800.000			-38.661			-4.296
262901.000			-38.660			-4.296
263000.000			-38.659			-4.295
263100.000			-38.658			-4.295
263201.000			-38.659			-4.295
263300.000			-38.659			-4.295
263400.000			-38.658			-4.295
263502.000			-38.659			-4.295
263601.000			-38.659			-4.295
263701.000			-38.657			-4.295
263801.000			-38.656			-4.295
263900.000			-38.657			-4.295
264000.000			-38.656			-4.295
264101.000			-38.655			-4.295
264200.000			-38.654			-4.295
264300.000			-38.654			-4.295
264401.000			-38.654			-4.295
264501.000			-38.653			-4.295
264601.000			-38.653			-4.295
264701.000			-38.654			-4.295
264800.000			-38.653			-4.295
264901.000			-38.652			-4.295
265000.000			-38.652			-4.295
265100.000			-38.651			-4.295
265201.000			-38.651			-4.295
265300.000			-38.650			-4.294
265401.000			-38.650			-4.294
265502.000			-38.648			-4.294
265601.000			-38.648			-4.294
265700.000			-38.649			-4.294
265801.000			-38.648			-4.294
265900.000			-38.647			-4.294
266000.000			-38.647			-4.294
266101.000			-38.647			-4.294
266200.000			-38.647			-4.294
266300.000			-38.646			-4.294
266402.000			-38.646			-4.294
266501.000			-38.645			-4.294
266601.000			-38.646			-4.294
266701.000			-38.646			-4.294
266800.000			-38.643			-4.294
266900.000			-38.643			-4.294
267001.000			-38.644			-4.294
267100.000			-38.643			-4.294
267200.000			-38.642			-4.294
267301.000			-38.642			-4.294
267401.000			-38.641			-4.293
267501.000			-38.642			-4.294
267601.000			-38.641			-4.293
267700.000			-38.640			-4.293
267800.000			-38.639			-4.293
267901.000			-38.640			-4.293
268000.000			-38.639			-4.293
268101.000			-38.638			-4.293
268200.000			-38.638			-4.293
268300.000			-38.638			-4.293
268402.000			-38.637			-4.293
268501.000			-38.637			-4.293
268600.000			-38.637			-4.293
268701.000			-38.636			-4.293
268800.000			-38.636			-4.293
268900.000			-38.636			-4.293
269001.000			-38.636			-4.293
269100.000			-38.636			-4.293
269200.000			-38.635			-4.293
269302.000			-38.634			-4.293
269401.000			-38.634			-4.293
269501.000			-38.633			-4.293
269601.000			-38.632			-4.292
269700.000			-38.631			-4.292
269800.000			-38.631			-4.292
269901.000			-38.631			-4.292
270000.000			-38.631			-4.292
270100.000			-38.631			-4.292
270201.000			-38.631			-4.292
270301.000			-38.629			-4.292
270401.000			-38.629			-4.292
270501.000			-38.628			-4.292
270600.000			-38.629			-4.292
270700.000			-38.629			-4.292
270801.000			-38.628			-4.292
270900.000			-38.628			-4.292
271000.000			-38.627			-4.292
271101.000			-38.627			-4.292
271200.000			-38.626			-4.292
271302.000			-38.626			-4.292
271401.000			-38.625			-4.292
271500.000			-38.625			-4.292
271601.000			-38.624			-4.292
271700.000			-38.624			-4.292
271800.000			-38.624			-4.292
271901.000			-38.623			-4.291
272000.000			-38.623			-4.291
272100.000			-38.622			-4.291
272202.000			-38.621			-4.291
272301.000			-38.621			-4.291
272400.000			-38.621			-4.291
272501.000			-38.621			-4.291
272600.000			-38.620			-4.291
272700.000			-38.620			-4.291
272801.000			-38.620			-4.291
272900.000			-38.619			-4.291
273000.000			-38.619			-4.291
273102.000			-38.618			-4.291
273201.000			-38.617			-4.291
273301.000			-38.616			-4.291
273401.000			-38.616			-4.291
273500.000			-38.617			-4.291
273600.000			-38.617			-4.291
273701.000			-38.617			-4.291
273800.000			-38.617			-4.291
273900.000			-38.616			-4.291
274001.000			-38.614			-4.290
274101.000			-38.614			-4.290
274201.000			-38.614			-4.290
274301.000			-38.614			-4.290
274400.000			-38.613			-4.290
274501.000			-38.612			-4.290
274600.000			-38.612			-4.290
274700.000			-38.612			-4.290
274801.000			-38.610			-4.290
274900.000			-38.610			-4.290
275001.000			-38.609			-4.290
275102.000			-38.610			-4.290
275201.000			-38.610			-4.290
275300.000			-38.610			-4.290
275401.000			-38.608			-4.290
275500.000			-38.608			-4.290
275600.000			-38.608			-4.290
275701.000			-38.608			-4.290
275800.000			-38.608			-4.290
275900.000			-38.607			-4.290
276002.000			-38.607			-4.290
276101.000			-38.607			-4.290
276200.000			-38.606			-4.290
276301.000			-38.606			-4.290
276400.000			-38.605			-4.289
276500.000			-38.604			-4.289
276601.000			-38.605			-4.289
276700.000			-38.604			-4.289
276800.000			-38.604			-4.289
276902.000			-38.603			-4.289
277001.000			-38.602			-4.289
277101.000			-38.601			-4.289
277201.000			-38.602			-4.289
277300.000			-38.602			-4.289
277400.000			-38.600			-4.289
277501.000			-38.600			-4.289
277600.000			-38.599			-4.289
277701.000			-38.599			-4.289
277800.000			-38.599			-4.289
277900.000			-38.599			-4.289
278002.000			-38.600			-4.289
278101.000			-38.598			-4.289
278200.000			-38.598			-4.289
278301.000			-38.598			-4.289
278400.000			-38.596			-4.288
278500.000			-38.596			-4.288
278601.000			-38.596			-4.288
278700.000			-38.595			-4.288
278800.000			-38.595			-4.288
278901.000			-38.595			-4.288
279001.000			-38.594			-4.288
279101.000			-38.593			-4.288
279201.000			-38.594			-4.288
279300.000			-38.594			-4.288
279400.000			-38.593			-4.288
279501.000			-38.592			-4.288
279600.000			-38.593			-4.288
279700.000			-38.592			-4.288
279801.000			-38.592			-4.288
279900.000			-38.592			-4.288
280001.000			-38.591			-4.288
280102.000			-38.590			-4.288
280200.000			-38.590			-4.288
280300.000			-38.591			-4.288
280401.000			-38.590			-4.288
280500.000			-38.589			-4.288
280600.000			-38.588			-4.288
280701.000			-38.587			-4.287
280800.000			-38.587			-4.287
280901.000			-38.587			-4.287
281001.000			-38.587			-4.287
281101.000			-38.586			-4.287
281201.000			-38.586			-4.287
281300.000			-38.585			-4.287
281400.000			-38.585			-4.287
281501.000			-38.585			-4.287
281600.000			-38.585			-4.287
281700.000			-38.585			-4.287
281801.000			-38.583			-4.287
281901.000			-38.582			-4.287
282001.000			-38.582			-4.287
282102.000			-38.582			-4.287
282200.000			-38.583			-4.287
282300.000			-38.583			-4.287
282401.000			-38.581			-4.287
282500.000			-38.580			-4.287
282600.000			-38.580			-4.287
282701.000			-38.581			-4.287
282800.000			-38.579			-4.287
282901.000			-38.579			-4.287
283002.000			-38.578			-4.286
283101.000			-38.579			-4.287
283200.000			-38.580			-4.287
283301.000			-38.578			-4.286
283400.000			-38.577			-4.286
283500.000			-38.577			-4.286
283601.000			-38.576			-4.286
283700.000			-38.576			-4.286
283800.000			-38.576			-4.286
283902.000			-38.575			-4.286
284001.000			-38.573			-4.286
284102.000			-38.574			-4.286
284200.000			-38.573			-4.286
284300.000			-38.573			-4.286
284401.000			-38.573			-4.286
284500.000			-38.573			-4.286
284600.000			-38.572			-4.286
284701.000			-38.571			-4.286
284800.000			-38.572			-4.286
284901.000			-38.571			-4.286
285002.000			-38.570			-4.286
285101.000			-38.570			-4.286
285200.000			-38.570			-4.286
285301.000			-38.570			-4.286
285400.000			-38.570			-4.286
285500.000			-38.569			-4.285
285601.000			-38.568			-4.285
285700.000			-38.566			-4.285
285800.000			-38.566			-4.285
285902.000			-38.566			-4.285
286001.000			-38.566			-4.285
286100.000			-38.567			-4.285
286201.000			-38.566			-4.285
286300.000			-38.564			-4.285
286400.000			-38.564			-4.285
286501.000			-38.565			-4.285
286600.000			-38.563			-4.285
286700.000			-38.562			-4.285
286801.000			-38.562			-4.285
286901.000			-38.561			-4.285
287001.000			-38.561			-4.285
287101.000			-38.562			-4.285
287200.000			-38.561			-4.285
287301.000			-38.561			-4.285
287400.000			-38.560			-4.284
287500.000			-38.560			-4.284
287601.000			-38.560			-4.284
287700.000			-38.559			-4.284
287800.000			-38.558			-4.284
287902.000			-38.558			-4.284
288001.000			-38.558			-4.284
288100.000			-38.557			-4.284
288201.000			-38.557			-4.284
288300.000			-38.557			-4.284
288400.000			-38.556			-4.284
288501.000			-38.556			-4.284
288600.000			-38.555			-4.284
288700.000			-38.554			-4.284
288802.000			-38.555			-4.284
288901.000			-38.555			-4.284
289001.000			-38.554			-4.284
289101.000			-38.554			-4.284
289200.000			-38.554			-4.284
289300.000			-38.553			-4.284
289401.000			-38.552			-4.284
289500.000			-38.553			-4.284
289600.000			-38.551			-4.283
289701.000			-38.550			-4.283
289801.000			-38.550			-4.283
289901.000			-38.549			-4.283
290002.000			-38.550			-4.283
290100.000			-38.550			-4.283
290200.000			-38.549			-4.283
290301.000			-38.549			-4.283
290400.000			-38.549			-4.283
290501.000			-38.548			-4.283
290600.000			-38.548			-4.283
290700.000			-38.548			-4.283
290802.000			-38.547			-4.283
290901.000			-38.547			-4.283
291001.000			-38.547			-4.283
291101.000			-38.546			-4.283
291200.000			-38.545			-4.283
291300.000			-38.545			-4.283
291401.000			-38.546			-4.283
291500.000			-38.544			-4.283
291600.000			-38.543			-4.283
291701.000			-38.543			-4.283
291801.000			-38.543			-4.283
291901.000			-38.543			-4.283
292001.000			-38.543			-4.283
292100.000			-38.542			-4.282
292200.000			-38.541			-4.282
292301.000			-38.541			-4.282
292400.000			-38.541			-4.282
292500.000			-38.541			-4.282
292601.000			-38.541			-4.282
292701.000			-38.540			-4.282
292801.000			-38.540			-4.282
292902.000			-38.540			-4.282
293000.000			-38.537			-4.282
293100.000			-38.537			-4.282
293201.000			-38.538			-4.282
293300.000			-38.538			-4.282
293400.000			-38.537			-4.282
293501.000			-38.536			-4.282
293600.000			-38.536			-4.282
293702.000			-38.536			-4.282
293801.000			-38.535			-4.282
293901.000			-38.535			-4.282
294001.000			-38.534			-4.282
294100.000			-38.533			-4.281
294200.000			-38.534			-4.282
294301.000			-38.534			-4.282
294400.000			-38.533			-4.281
294500.000			-38.533			-4.281
294601.000			-38.532			-4.281
294701.000			-38.531			-4.281
294801.000			-38.530			-4.281
294901.000			-38.531			-4.281
295000.000			-38.531			-4.281
295100.000			-38.531			-4.281
295201.000			-38.529			-4.281
295300.000			-38.529			-4.281
295400.000			-38.529			-4.281
295501.000			-38.529			-4.281
295601.000			-38.529			-4.281
295701.000			-38.528			-4.281
295802.000			-38.526			-4.281
295900.000			-38.528			-4.281
296000.000			-38.528			-4.281
296101.000			-38.528			-4.281
296200.000			-38.526			-4.281
296300.000			-38.526			-4.281
296401.000			-38.526			-4.281
296500.000			-38.525			-4.281
296601.000			-38.525			-4.281
296702.000			-38.524			-4.280
296801.000			-38.523			-4.280
296901.000			-38.523			-4.280
297000.000			-38.523			-4.280
297100.000			-38.523			-4.280
297201.000			-38.523			-4.280
297300.000			-38.522			-4.280
297400.000			-38.522			-4.280
297501.000			-38.522			-4.280
297601.000			-38.521			-4.280
297701.000			-38.520			-4.280
297802.000			-38.520			-4.280
297900.000			-38.520			-4.280
298000.000			-38.520			-4.280
298101.000			-38.518			-4.280
298200.000			-38.518			-4.280
298300.000			-38.518			-4.280
298401.000			-38.517			-4.280
298500.000			-38.517			-4.280
298601.000			-38.517			-4.280
298702.000			-38.516			-4.280
298801.000			-38.515			-4.279
298900.000			-38.515			-4.279
299001.000			-38.515			-4.279
299100.000			-38.515			-4.279
299200.000			-38.514			-4.279
299301.000			-38.513			-4.279
299400.000			-38.513			-4.279
299500.000			-38.513			-4.279
299602.000			-38.512			-4.279
299701.000			-38.513			-4.279
299801.000			-38.513			-4.279
299901.000			-38.512			-4.279
