# Acquired on 09/01/2024 12:38:31 
# SPIDER: Creep_8mm_07714532C-1
# CREEP MEASUREMENT

# time [ms]		force [N]		stiffness [N/mm]
0.000			-14.400			-1.800
101.000			-15.292			-1.912
200.000			-15.700			-1.963
302.000			-15.694			-1.962
401.000			-15.626			-1.953
500.000			-15.573			-1.947
601.000			-15.529			-1.941
700.000			-15.491			-1.936
800.000			-15.458			-1.932
901.000			-15.428			-1.928
1001.000			-15.375			-1.922
1101.000			-15.352			-1.919
1201.000			-15.332			-1.916
1300.000			-15.311			-1.914
1400.000			-15.293			-1.912
1501.000			-15.275			-1.909
1600.000			-15.259			-1.907
1701.000			-15.229			-1.904
1802.000			-15.214			-1.902
1900.000			-15.200			-1.900
2000.000			-15.187			-1.898
2101.000			-15.174			-1.897
2200.000			-15.162			-1.895
2300.000			-15.151			-1.894
2401.000			-15.129			-1.891
2501.000			-15.118			-1.890
2601.000			-15.108			-1.889
2701.000			-15.099			-1.887
2800.000			-15.090			-1.886
2900.000			-15.080			-1.885
3001.000			-15.070			-1.884
3100.000			-15.062			-1.883
3201.000			-15.045			-1.881
3302.000			-15.038			-1.880
3400.000			-15.030			-1.879
3500.000			-15.023			-1.878
3600.000			-15.015			-1.877
3700.000			-15.007			-1.876
3801.000			-15.001			-1.875
3900.000			-14.987			-1.873
4001.000			-14.981			-1.873
4102.000			-14.974			-1.872
4200.000			-14.967			-1.871
4300.000			-14.961			-1.870
4401.000			-14.956			-1.869
4500.000			-14.949			-1.869
4600.000			-14.937			-1.867
4701.000			-14.931			-1.866
4801.000			-14.925			-1.866
4901.000			-14.919			-1.865
5001.000			-14.915			-1.864
5100.000			-14.910			-1.864
5200.000			-14.904			-1.863
5301.000			-14.895			-1.862
5400.000			-14.890			-1.861
5501.000			-14.885			-1.861
5602.000			-14.879			-1.860
5700.000			-14.874			-1.859
5800.000			-14.870			-1.859
5901.000			-14.865			-1.858
6000.000			-14.860			-1.858
6100.000			-14.851			-1.856
6201.000			-14.847			-1.856
6301.000			-14.843			-1.855
6401.000			-14.839			-1.855
6501.000			-14.834			-1.854
6600.000			-14.831			-1.854
6700.000			-14.827			-1.853
6800.000			-14.819			-1.852
6900.000			-14.816			-1.852
7001.000			-14.811			-1.851
7101.000			-14.806			-1.851
7201.000			-14.803			-1.850
7301.000			-14.800			-1.850
7400.000			-14.796			-1.850
7500.000			-14.789			-1.849
7601.000			-14.786			-1.848
7700.000			-14.782			-1.848
7800.000			-14.778			-1.847
7902.000			-14.775			-1.847
8001.000			-14.771			-1.846
8100.000			-14.767			-1.846
8201.000			-14.761			-1.845
8300.000			-14.756			-1.845
8400.000			-14.754			-1.844
8501.000			-14.751			-1.844
8601.000			-14.747			-1.843
8701.000			-14.744			-1.843
8802.000			-14.741			-1.843
8900.000			-14.738			-1.842
9000.000			-14.732			-1.842
9101.000			-14.729			-1.841
9200.000			-14.726			-1.841
9300.000			-14.723			-1.840
9402.000			-14.720			-1.840
9501.000			-14.717			-1.840
9600.000			-14.715			-1.839
9701.000			-14.709			-1.839
9800.000			-14.706			-1.838
9900.000			-14.702			-1.838
10000.000			-14.700			-1.838
10100.000			-14.698			-1.837
10202.000			-14.695			-1.837
10301.000			-14.692			-1.837
10400.000			-14.686			-1.836
10501.000			-14.684			-1.836
10600.000			-14.682			-1.835
10700.000			-14.679			-1.835
10801.000			-14.676			-1.835
10900.000			-14.674			-1.834
11001.000			-14.672			-1.834
11102.000			-14.667			-1.833
11200.000			-14.664			-1.833
11300.000			-14.661			-1.833
11401.000			-14.659			-1.832
11500.000			-14.658			-1.832
11600.000			-14.655			-1.832
11701.000			-14.652			-1.831
11801.000			-14.648			-1.831
11901.000			-14.645			-1.831
12002.000			-14.643			-1.830
12100.000			-14.641			-1.830
12200.000			-14.639			-1.830
12301.000			-14.636			-1.830
12400.000			-14.634			-1.829
12500.000			-14.631			-1.829
12602.000			-14.627			-1.828
12701.000			-14.626			-1.828
12800.000			-14.624			-1.828
12901.000			-14.621			-1.828
13000.000			-14.619			-1.827
13100.000			-14.617			-1.827
13200.000			-14.614			-1.827
13300.000			-14.610			-1.826
13402.000			-14.608			-1.826
13501.000			-14.606			-1.826
13600.000			-14.604			-1.826
13701.000			-14.603			-1.825
13800.000			-14.600			-1.825
13900.000			-14.598			-1.825
14001.000			-14.595			-1.824
14100.000			-14.591			-1.824
14201.000			-14.589			-1.824
14302.000			-14.588			-1.824
14401.000			-14.586			-1.823
14500.000			-14.584			-1.823
14601.000			-14.582			-1.823
14700.000			-14.581			-1.823
14800.000			-14.576			-1.822
14901.000			-14.573			-1.822
15001.000			-14.572			-1.821
15101.000			-14.571			-1.821
15201.000			-14.568			-1.821
15300.000			-14.566			-1.821
15400.000			-14.564			-1.821
15501.000			-14.560			-1.820
15600.000			-14.559			-1.820
15700.000			-14.558			-1.820
15802.000			-14.555			-1.819
15901.000			-14.553			-1.819
16001.000			-14.552			-1.819
16101.000			-14.551			-1.819
16200.000			-14.548			-1.818
16300.000			-14.546			-1.818
16400.000			-14.544			-1.818
16500.000			-14.541			-1.818
16602.000			-14.540			-1.817
16701.000			-14.538			-1.817
16801.000			-14.536			-1.817
16901.000			-14.534			-1.817
17000.000			-14.531			-1.816
17100.000			-14.530			-1.816
17201.000			-14.528			-1.816
17300.000			-14.527			-1.816
17401.000			-14.526			-1.816
17502.000			-14.524			-1.815
17601.000			-14.522			-1.815
17700.000			-14.520			-1.815
17801.000			-14.518			-1.815
17900.000			-14.516			-1.815
18000.000			-14.515			-1.814
18101.000			-14.513			-1.814
18201.000			-14.511			-1.814
18301.000			-14.509			-1.814
18401.000			-14.506			-1.813
18500.000			-14.506			-1.813
18600.000			-14.504			-1.813
18701.000			-14.502			-1.813
18800.000			-14.501			-1.813
18900.000			-14.498			-1.812
19002.000			-14.497			-1.812
19101.000			-14.495			-1.812
19200.000			-14.494			-1.812
19301.000			-14.492			-1.811
19400.000			-14.492			-1.811
19500.000			-14.489			-1.811
19600.000			-14.486			-1.811
19700.000			-14.485			-1.811
19801.000			-14.482			-1.810
19901.000			-14.481			-1.810
20001.000			-14.479			-1.810
20101.000			-14.478			-1.810
20200.000			-14.476			-1.810
20300.000			-14.476			-1.810
20401.000			-14.475			-1.809
20500.000			-14.473			-1.809
20600.000			-14.469			-1.809
20702.000			-14.468			-1.808
20801.000			-14.468			-1.808
20900.000			-14.467			-1.808
21001.000			-14.465			-1.808
21100.000			-14.463			-1.808
21200.000			-14.461			-1.808
21301.000			-14.459			-1.807
21400.000			-14.458			-1.807
21501.000			-14.456			-1.807
21602.000			-14.455			-1.807
21700.000			-14.454			-1.807
21800.000			-14.452			-1.807
21901.000			-14.451			-1.806
22000.000			-14.449			-1.806
22100.000			-14.447			-1.806
22202.000			-14.445			-1.806
22301.000			-14.445			-1.806
22401.000			-14.444			-1.805
22501.000			-14.442			-1.805
22600.000			-14.441			-1.805
22700.000			-14.439			-1.805
22800.000			-14.437			-1.805
22900.000			-14.436			-1.804
23002.000			-14.433			-1.804
23101.000			-14.433			-1.804
23200.000			-14.433			-1.804
23301.000			-14.431			-1.804
23400.000			-14.430			-1.804
23500.000			-14.426			-1.803
23601.000			-14.425			-1.803
23700.000			-14.425			-1.803
23801.000			-14.425			-1.803
23902.000			-14.423			-1.803
24000.000			-14.421			-1.803
24100.000			-14.420			-1.802
24201.000			-14.418			-1.802
24300.000			-14.417			-1.802
24400.000			-14.415			-1.802
24501.000			-14.415			-1.802
24601.000			-14.413			-1.802
24701.000			-14.413			-1.802
24801.000			-14.411			-1.801
24900.000			-14.408			-1.801
25000.000			-14.408			-1.801
25101.000			-14.407			-1.801
25200.000			-14.406			-1.801
25300.000			-14.405			-1.801
25402.000			-14.404			-1.800
25501.000			-14.403			-1.800
25600.000			-14.400			-1.800
25701.000			-14.398			-1.800
25800.000			-14.398			-1.800
25900.000			-14.396			-1.799
26000.000			-14.395			-1.799
26100.000			-14.395			-1.799
26202.000			-14.393			-1.799
26301.000			-14.392			-1.799
26400.000			-14.390			-1.799
26501.000			-14.388			-1.799
26600.000			-14.388			-1.798
26700.000			-14.387			-1.798
26801.000			-14.387			-1.798
26900.000			-14.384			-1.798
27001.000			-14.383			-1.798
27102.000			-14.381			-1.798
27200.000			-14.381			-1.798
27300.000			-14.380			-1.797
27401.000			-14.378			-1.797
27500.000			-14.377			-1.797
27600.000			-14.377			-1.797
27701.000			-14.376			-1.797
27801.000			-14.373			-1.797
27901.000			-14.372			-1.797
28001.000			-14.372			-1.796
28100.000			-14.370			-1.796
28200.000			-14.369			-1.796
28301.000			-14.368			-1.796
28400.000			-14.367			-1.796
28500.000			-14.363			-1.795
28602.000			-14.364			-1.795
28701.000			-14.363			-1.795
28801.000			-14.361			-1.795
28901.000			-14.360			-1.795
29000.000			-14.359			-1.795
29100.000			-14.359			-1.795
29200.000			-14.359			-1.795
29300.000			-14.356			-1.794
29401.000			-14.355			-1.794
29501.000			-14.353			-1.794
29601.000			-14.353			-1.794
29701.000			-14.352			-1.794
29800.000			-14.350			-1.794
29900.000			-14.350			-1.794
30001.000			-14.349			-1.794
30100.000			-14.347			-1.793
30200.000			-14.345			-1.793
30302.000			-14.345			-1.793
30401.000			-14.344			-1.793
30500.000			-14.342			-1.793
30601.000			-14.341			-1.793
30700.000			-14.339			-1.792
30800.000			-14.339			-1.792
30901.000			-14.338			-1.792
31001.000			-14.337			-1.792
31101.000			-14.336			-1.792
31201.000			-14.335			-1.792
31300.000			-14.334			-1.792
31400.000			-14.332			-1.791
31501.000			-14.332			-1.791
31600.000			-14.331			-1.791
31700.000			-14.329			-1.791
31802.000			-14.329			-1.791
31901.000			-14.328			-1.791
32000.000			-14.327			-1.791
32101.000			-14.326			-1.791
32200.000			-14.324			-1.791
32300.000			-14.322			-1.790
32400.000			-14.322			-1.790
32500.000			-14.321			-1.790
32602.000			-14.321			-1.790
32701.000			-14.319			-1.790
32800.000			-14.318			-1.790
32901.000			-14.318			-1.790
33000.000			-14.317			-1.790
33100.000			-14.315			-1.789
33201.000			-14.314			-1.789
33300.000			-14.314			-1.789
33401.000			-14.313			-1.789
33502.000			-14.312			-1.789
33600.000			-14.310			-1.789
33700.000			-14.309			-1.789
33801.000			-14.309			-1.789
33900.000			-14.308			-1.788
34000.000			-14.307			-1.788
34102.000			-14.306			-1.788
34201.000			-14.305			-1.788
34300.000			-14.303			-1.788
34401.000			-14.303			-1.788
34500.000			-14.302			-1.788
34600.000			-14.301			-1.788
34701.000			-14.299			-1.787
34800.000			-14.299			-1.787
34901.000			-14.298			-1.787
35002.000			-14.296			-1.787
35100.000			-14.297			-1.787
35200.000			-14.295			-1.787
35301.000			-14.293			-1.787
35400.000			-14.293			-1.787
35500.000			-14.292			-1.787
35600.000			-14.292			-1.786
35701.000			-14.291			-1.786
35802.000			-14.289			-1.786
35900.000			-14.289			-1.786
36000.000			-14.288			-1.786
36101.000			-14.286			-1.786
36200.000			-14.285			-1.786
36300.000			-14.285			-1.786
36401.000			-14.284			-1.786
36501.000			-14.282			-1.785
36601.000			-14.281			-1.785
36701.000			-14.281			-1.785
36800.000			-14.279			-1.785
36900.000			-14.278			-1.785
37001.000			-14.278			-1.785
37100.000			-14.278			-1.785
37200.000			-14.275			-1.784
37301.000			-14.275			-1.784
37401.000			-14.274			-1.784
37501.000			-14.273			-1.784
37601.000			-14.273			-1.784
37700.000			-14.272			-1.784
37800.000			-14.271			-1.784
37901.000			-14.270			-1.784
38000.000			-14.270			-1.784
38100.000			-14.269			-1.784
38202.000			-14.268			-1.783
38301.000			-14.267			-1.783
38400.000			-14.266			-1.783
38501.000			-14.265			-1.783
38600.000			-14.265			-1.783
38700.000			-14.263			-1.783
38800.000			-14.262			-1.783
38900.000			-14.260			-1.783
39002.000			-14.260			-1.783
39101.000			-14.260			-1.782
39200.000			-14.259			-1.782
39301.000			-14.259			-1.782
39400.000			-14.258			-1.782
39500.000			-14.257			-1.782
39601.000			-14.257			-1.782
39700.000			-14.255			-1.782
39801.000			-14.253			-1.782
39902.000			-14.253			-1.782
40000.000			-14.252			-1.781
40100.000			-14.251			-1.781
40201.000			-14.251			-1.781
40300.000			-14.249			-1.781
40400.000			-14.247			-1.781
40501.000			-14.247			-1.781
40601.000			-14.246			-1.781
40701.000			-14.247			-1.781
40801.000			-14.245			-1.781
40900.000			-14.244			-1.780
41000.000			-14.243			-1.780
41101.000			-14.241			-1.780
41200.000			-14.240			-1.780
41301.000			-14.240			-1.780
41402.000			-14.240			-1.780
41500.000			-14.239			-1.780
41600.000			-14.239			-1.780
41701.000			-14.238			-1.780
41800.000			-14.236			-1.780
41900.000			-14.236			-1.780
42000.000			-14.236			-1.779
42101.000			-14.235			-1.779
42202.000			-14.234			-1.779
42300.000			-14.233			-1.779
42400.000			-14.231			-1.779
42501.000			-14.230			-1.779
42600.000			-14.230			-1.779
42700.000			-14.229			-1.779
42801.000			-14.229			-1.779
42901.000			-14.229			-1.779
43001.000			-14.226			-1.778
43101.000			-14.226			-1.778
43200.000			-14.225			-1.778
43300.000			-14.225			-1.778
43401.000			-14.224			-1.778
43500.000			-14.224			-1.778
43600.000			-14.222			-1.778
43702.000			-14.221			-1.778
43801.000			-14.220			-1.778
43900.000			-14.220			-1.778
44001.000			-14.220			-1.777
44100.000			-14.219			-1.777
44200.000			-14.218			-1.777
44301.000			-14.218			-1.777
44401.000			-14.217			-1.777
44501.000			-14.215			-1.777
44601.000			-14.214			-1.777
44700.000			-14.214			-1.777
44800.000			-14.214			-1.777
44901.000			-14.212			-1.777
45000.000			-14.212			-1.777
45100.000			-14.212			-1.777
45202.000			-14.211			-1.776
45301.000			-14.210			-1.776
45401.000			-14.209			-1.776
45500.000			-14.208			-1.776
45600.000			-14.208			-1.776
45701.000			-14.207			-1.776
45800.000			-14.207			-1.776
45900.000			-14.206			-1.776
46002.000			-14.204			-1.776
46101.000			-14.205			-1.776
46200.000			-14.204			-1.775
46301.000			-14.203			-1.775
46400.000			-14.204			-1.776
46500.000			-14.203			-1.775
46601.000			-14.200			-1.775
46701.000			-14.200			-1.775
46801.000			-14.200			-1.775
46902.000			-14.200			-1.775
47000.000			-14.198			-1.775
47100.000			-14.198			-1.775
47201.000			-14.198			-1.775
47300.000			-14.197			-1.775
47400.000			-14.195			-1.774
47501.000			-14.195			-1.774
47601.000			-14.195			-1.774
47701.000			-14.194			-1.774
47801.000			-14.194			-1.774
47900.000			-14.193			-1.774
48000.000			-14.191			-1.774
48101.000			-14.191			-1.774
48200.000			-14.191			-1.774
48300.000			-14.190			-1.774
48402.000			-14.190			-1.774
48501.000			-14.189			-1.774
48601.000			-14.189			-1.774
48700.000			-14.188			-1.774
48800.000			-14.187			-1.773
48901.000			-14.185			-1.773
49000.000			-14.185			-1.773
49100.000			-14.185			-1.773
49202.000			-14.184			-1.773
49301.000			-14.183			-1.773
49400.000			-14.183			-1.773
49501.000			-14.182			-1.773
49600.000			-14.181			-1.773
49700.000			-14.181			-1.773
49801.000			-14.181			-1.773
49900.000			-14.181			-1.773
50001.000			-14.178			-1.772
50102.000			-14.177			-1.772
50200.000			-14.177			-1.772
50300.000			-14.177			-1.772
50401.000			-14.176			-1.772
50500.000			-14.175			-1.772
50600.000			-14.174			-1.772
50701.000			-14.174			-1.772
50801.000			-14.174			-1.772
50901.000			-14.172			-1.772
51001.000			-14.172			-1.772
51100.000			-14.172			-1.772
51200.000			-14.171			-1.771
51301.000			-14.169			-1.771
51400.000			-14.169			-1.771
51502.000			-14.168			-1.771
51601.000			-14.168			-1.771
51701.000			-14.168			-1.771
51801.000			-14.168			-1.771
51900.000			-14.167			-1.771
52000.000			-14.166			-1.771
52101.000			-14.165			-1.771
52200.000			-14.164			-1.770
52301.000			-14.164			-1.770
52402.000			-14.162			-1.770
52500.000			-14.161			-1.770
52600.000			-14.162			-1.770
52701.000			-14.161			-1.770
52800.000			-14.160			-1.770
52900.000			-14.159			-1.770
53001.000			-14.159			-1.770
53101.000			-14.158			-1.770
53201.000			-14.158			-1.770
53301.000			-14.158			-1.770
53400.000			-14.156			-1.770
53500.000			-14.156			-1.769
53601.000			-14.156			-1.769
53700.000			-14.155			-1.769
53800.000			-14.154			-1.769
53902.000			-14.153			-1.769
54001.000			-14.153			-1.769
54100.000			-14.152			-1.769
54201.000			-14.151			-1.769
54300.000			-14.151			-1.769
54400.000			-14.151			-1.769
54501.000			-14.150			-1.769
54600.000			-14.149			-1.769
54702.000			-14.148			-1.769
54801.000			-14.147			-1.768
54900.000			-14.147			-1.768
55001.000			-14.147			-1.768
55100.000			-14.146			-1.768
55200.000			-14.147			-1.768
55301.000			-14.145			-1.768
55400.000			-14.144			-1.768
55501.000			-14.144			-1.768
55602.000			-14.143			-1.768
55700.000			-14.143			-1.768
55800.000			-14.142			-1.768
55901.000			-14.141			-1.768
56000.000			-14.140			-1.768
56100.000			-14.139			-1.767
56201.000			-14.139			-1.767
56301.000			-14.139			-1.767
56401.000			-14.139			-1.767
56501.000			-14.138			-1.767
56600.000			-14.137			-1.767
56700.000			-14.138			-1.767
56801.000			-14.137			-1.767
56900.000			-14.136			-1.767
57000.000			-14.135			-1.767
57102.000			-14.134			-1.767
57201.000			-14.133			-1.767
57300.000			-14.133			-1.767
57401.000			-14.132			-1.767
57500.000			-14.132			-1.766
57600.000			-14.131			-1.766
57701.000			-14.130			-1.766
57801.000			-14.130			-1.766
57902.000			-14.130			-1.766
58001.000			-14.129			-1.766
58100.000			-14.128			-1.766
58201.000			-14.127			-1.766
58300.000			-14.128			-1.766
58400.000			-14.127			-1.766
58501.000			-14.126			-1.766
58600.000			-14.125			-1.766
58701.000			-14.124			-1.765
58802.000			-14.124			-1.766
58900.000			-14.124			-1.765
59000.000			-14.123			-1.765
59101.000			-14.122			-1.765
59200.000			-14.121			-1.765
59300.000			-14.120			-1.765
59401.000			-14.121			-1.765
59501.000			-14.120			-1.765
59601.000			-14.120			-1.765
59701.000			-14.119			-1.765
59800.000			-14.119			-1.765
59900.000			-14.117			-1.765
60001.000			-14.116			-1.764
60100.000			-14.117			-1.765
60200.000			-14.117			-1.765
60302.000			-14.116			-1.764
60401.000			-14.114			-1.764
60500.000			-14.115			-1.764
60601.000			-14.115			-1.764
60700.000			-14.114			-1.764
60800.000			-14.113			-1.764
60901.000			-14.112			-1.764
61001.000			-14.111			-1.764
61102.000			-14.111			-1.764
61200.000			-14.110			-1.764
61300.000			-14.110			-1.764
61401.000			-14.110			-1.764
61500.000			-14.110			-1.764
61600.000			-14.109			-1.764
61701.000			-14.108			-1.764
61801.000			-14.108			-1.763
61901.000			-14.107			-1.763
62001.000			-14.106			-1.763
62100.000			-14.106			-1.763
62200.000			-14.105			-1.763
62301.000			-14.105			-1.763
62400.000			-14.105			-1.763
62500.000			-14.105			-1.763
62602.000			-14.103			-1.763
62701.000			-14.102			-1.763
62800.000			-14.103			-1.763
62901.000			-14.102			-1.763
63000.000			-14.102			-1.763
63100.000			-14.101			-1.763
63201.000			-14.100			-1.763
63301.000			-14.099			-1.762
63401.000			-14.099			-1.762
63501.000			-14.099			-1.762
63600.000			-14.098			-1.762
63700.000			-14.097			-1.762
63801.000			-14.097			-1.762
63900.000			-14.096			-1.762
64000.000			-14.096			-1.762
64101.000			-14.095			-1.762
64201.000			-14.094			-1.762
64302.000			-14.093			-1.762
64400.000			-14.093			-1.762
64500.000			-14.093			-1.762
64601.000			-14.092			-1.762
64700.000			-14.092			-1.761
64800.000			-14.092			-1.761
64902.000			-14.091			-1.761
65001.000			-14.090			-1.761
65100.000			-14.090			-1.761
65201.000			-14.090			-1.761
65300.000			-14.090			-1.761
65400.000			-14.089			-1.761
65501.000			-14.089			-1.761
65600.000			-14.088			-1.761
65700.000			-14.086			-1.761
65802.000			-14.086			-1.761
65901.000			-14.087			-1.761
66000.000			-14.086			-1.761
66101.000			-14.085			-1.761
66200.000			-14.084			-1.761
66300.000			-14.084			-1.760
66401.000			-14.083			-1.760
66500.000			-14.083			-1.760
66601.000			-14.082			-1.760
66702.000			-14.082			-1.760
66800.000			-14.082			-1.760
66900.000			-14.081			-1.760
67001.000			-14.080			-1.760
67100.000			-14.080			-1.760
67200.000			-14.080			-1.760
67301.000			-14.079			-1.760
67401.000			-14.078			-1.760
67502.000			-14.078			-1.760
67600.000			-14.078			-1.760
67700.000			-14.078			-1.760
67801.000			-14.077			-1.760
67900.000			-14.076			-1.759
68000.000			-14.075			-1.759
68101.000			-14.075			-1.759
68201.000			-14.074			-1.759
68301.000			-14.073			-1.759
68401.000			-14.073			-1.759
68500.000			-14.072			-1.759
68600.000			-14.071			-1.759
68701.000			-14.070			-1.759
68800.000			-14.070			-1.759
68900.000			-14.071			-1.759
69002.000			-14.071			-1.759
69101.000			-14.070			-1.759
69200.000			-14.069			-1.759
69301.000			-14.068			-1.759
69400.000			-14.069			-1.759
69500.000			-14.068			-1.759
69601.000			-14.066			-1.758
69700.000			-14.066			-1.758
69800.000			-14.066			-1.758
69902.000			-14.065			-1.758
70001.000			-14.064			-1.758
70100.000			-14.064			-1.758
70201.000			-14.064			-1.758
70300.000			-14.064			-1.758
70400.000			-14.064			-1.758
70501.000			-14.063			-1.758
70601.000			-14.062			-1.758
70702.000			-14.062			-1.758
70801.000			-14.061			-1.758
70900.000			-14.060			-1.757
71001.000			-14.059			-1.757
71100.000			-14.060			-1.757
71200.000			-14.061			-1.758
71301.000			-14.059			-1.757
71401.000			-14.058			-1.757
71501.000			-14.058			-1.757
71602.000			-14.057			-1.757
71700.000			-14.058			-1.757
71800.000			-14.058			-1.757
71901.000			-14.057			-1.757
72000.000			-14.056			-1.757
72100.000			-14.056			-1.757
72201.000			-14.055			-1.757
72301.000			-14.054			-1.757
72401.000			-14.055			-1.757
72501.000			-14.054			-1.757
72600.000			-14.053			-1.757
72700.000			-14.053			-1.757
72801.000			-14.052			-1.757
72900.000			-14.052			-1.757
73000.000			-14.052			-1.756
73102.000			-14.050			-1.756
73201.000			-14.050			-1.756
73300.000			-14.049			-1.756
73401.000			-14.048			-1.756
73500.000			-14.048			-1.756
73600.000			-14.048			-1.756
73701.000			-14.048			-1.756
73800.000			-14.048			-1.756
73902.000			-14.047			-1.756
74001.000			-14.047			-1.756
74100.000			-14.047			-1.756
74201.000			-14.045			-1.756
74300.000			-14.045			-1.756
74400.000			-14.044			-1.756
74501.000			-14.044			-1.755
74600.000			-14.043			-1.755
74701.000			-14.043			-1.755
74802.000			-14.042			-1.755
74900.000			-14.042			-1.755
75000.000			-14.041			-1.755
75101.000			-14.040			-1.755
75200.000			-14.041			-1.755
75300.000			-14.040			-1.755
75401.000			-14.040			-1.755
75501.000			-14.039			-1.755
75601.000			-14.039			-1.755
75701.000			-14.039			-1.755
75800.000			-14.037			-1.755
75900.000			-14.037			-1.755
76001.000			-14.037			-1.755
76100.000			-14.038			-1.755
76200.000			-14.037			-1.755
76302.000			-14.035			-1.754
76401.000			-14.034			-1.754
76500.000			-14.034			-1.754
76601.000			-14.033			-1.754
76700.000			-14.032			-1.754
76800.000			-14.033			-1.754
76901.000			-14.033			-1.754
77000.000			-14.033			-1.754
77102.000			-14.032			-1.754
77201.000			-14.032			-1.754
77300.000			-14.032			-1.754
77401.000			-14.031			-1.754
77500.000			-14.030			-1.754
77600.000			-14.030			-1.754
77701.000			-14.031			-1.754
77800.000			-14.029			-1.754
77901.000			-14.029			-1.754
78002.000			-14.029			-1.754
78100.000			-14.028			-1.754
78200.000			-14.028			-1.753
78301.000			-14.027			-1.753
78400.000			-14.027			-1.753
78500.000			-14.027			-1.753
78601.000			-14.026			-1.753
78701.000			-14.026			-1.753
78801.000			-14.024			-1.753
78901.000			-14.023			-1.753
79000.000			-14.023			-1.753
79100.000			-14.023			-1.753
79201.000			-14.023			-1.753
79300.000			-14.022			-1.753
79400.000			-14.022			-1.753
79502.000			-14.021			-1.753
79601.000			-14.021			-1.753
79700.000			-14.021			-1.753
79801.000			-14.020			-1.753
79900.000			-14.020			-1.752
80000.000			-14.019			-1.752
80101.000			-14.019			-1.752
80200.000			-14.019			-1.752
80302.000			-14.018			-1.752
80401.000			-14.019			-1.752
80500.000			-14.018			-1.752
80601.000			-14.017			-1.752
80700.000			-14.017			-1.752
80800.000			-14.017			-1.752
80901.000			-14.016			-1.752
81000.000			-14.016			-1.752
81101.000			-14.015			-1.752
81202.000			-14.015			-1.752
81300.000			-14.015			-1.752
81400.000			-14.013			-1.752
81501.000			-14.013			-1.752
81600.000			-14.012			-1.752
81700.000			-14.013			-1.752
81801.000			-14.012			-1.751
81901.000			-14.011			-1.751
82001.000			-14.011			-1.751
82101.000			-14.012			-1.751
82200.000			-14.011			-1.751
82300.000			-14.010			-1.751
82401.000			-14.009			-1.751
82500.000			-14.009			-1.751
82600.000			-14.009			-1.751
82702.000			-14.009			-1.751
82801.000			-14.008			-1.751
82900.000			-14.007			-1.751
83001.000			-14.007			-1.751
83100.000			-14.007			-1.751
83200.000			-14.007			-1.751
83301.000			-14.006			-1.751
83400.000			-14.006			-1.751
83502.000			-14.006			-1.751
83601.000			-14.004			-1.751
83700.000			-14.004			-1.750
83801.000			-14.004			-1.751
83900.000			-14.005			-1.751
84000.000			-14.004			-1.750
84101.000			-14.003			-1.750
84200.000			-14.002			-1.750
84301.000			-14.002			-1.750
84402.000			-14.002			-1.750
84500.000			-14.001			-1.750
84600.000			-14.001			-1.750
84701.000			-14.002			-1.750
84800.000			-14.001			-1.750
84900.000			-14.000			-1.750
85001.000			-14.000			-1.750
85101.000			-13.999			-1.750
85201.000			-13.998			-1.750
85301.000			-13.997			-1.750
85400.000			-13.997			-1.750
85500.000			-13.997			-1.750
85601.000			-13.997			-1.750
85700.000			-13.996			-1.750
85800.000			-13.997			-1.750
85902.000			-13.996			-1.749
86001.000			-13.995			-1.749
86101.000			-13.995			-1.749
86201.000			-13.995			-1.749
86300.000			-13.995			-1.749
86400.000			-13.994			-1.749
86501.000			-13.994			-1.749
86600.000			-13.991			-1.749
86700.000			-13.992			-1.749
86802.000			-13.992			-1.749
86901.000			-13.992			-1.749
87002.000			-13.991			-1.749
87100.000			-13.991			-1.749
87200.000			-13.990			-1.749
87301.000			-13.990			-1.749
87400.000			-13.990			-1.749
87500.000			-13.989			-1.749
87601.000			-13.988			-1.749
87701.000			-13.988			-1.749
87801.000			-13.989			-1.749
87901.000			-13.987			-1.748
88000.000			-13.988			-1.749
88100.000			-13.987			-1.748
88201.000			-13.986			-1.748
88300.000			-13.986			-1.748
88400.000			-13.984			-1.748
88501.000			-13.984			-1.748
88601.000			-13.985			-1.748
88701.000			-13.984			-1.748
88801.000			-13.984			-1.748
88900.000			-13.984			-1.748
89000.000			-13.983			-1.748
89101.000			-13.982			-1.748
89200.000			-13.982			-1.748
89300.000			-13.983			-1.748
89402.000			-13.982			-1.748
89501.000			-13.982			-1.748
89600.000			-13.981			-1.748
89701.000			-13.980			-1.748
89800.000			-13.980			-1.747
89900.000			-13.980			-1.747
90000.000			-13.979			-1.747
90100.000			-13.977			-1.747
90201.000			-13.977			-1.747
90301.000			-13.977			-1.747
90401.000			-13.976			-1.747
90501.000			-13.977			-1.747
90600.000			-13.977			-1.747
90700.000			-13.976			-1.747
90801.000			-13.975			-1.747
90900.000			-13.975			-1.747
91000.000			-13.974			-1.747
91102.000			-13.974			-1.747
91201.000			-13.974			-1.747
91301.000			-13.973			-1.747
91401.000			-13.972			-1.747
91500.000			-13.974			-1.747
91600.000			-13.973			-1.747
91701.000			-13.973			-1.747
91800.000			-13.973			-1.747
91900.000			-13.972			-1.747
92002.000			-13.971			-1.746
92101.000			-13.971			-1.746
92200.000			-13.971			-1.746
92301.000			-13.970			-1.746
92400.000			-13.970			-1.746
92500.000			-13.970			-1.746
92601.000			-13.970			-1.746
92700.000			-13.970			-1.746
92801.000			-13.968			-1.746
92902.000			-13.969			-1.746
93000.000			-13.968			-1.746
93100.000			-13.967			-1.746
93200.000			-13.967			-1.746
93300.000			-13.967			-1.746
93401.000			-13.966			-1.746
93500.000			-13.966			-1.746
93601.000			-13.966			-1.746
93702.000			-13.965			-1.746
93801.000			-13.965			-1.746
93900.000			-13.964			-1.746
94001.000			-13.964			-1.745
94100.000			-13.964			-1.745
94200.000			-13.964			-1.745
94301.000			-13.963			-1.745
94400.000			-13.962			-1.745
94501.000			-13.963			-1.745
94602.000			-13.962			-1.745
94700.000			-13.961			-1.745
94800.000			-13.961			-1.745
94901.000			-13.961			-1.745
95000.000			-13.961			-1.745
95100.000			-13.960			-1.745
95201.000			-13.959			-1.745
95301.000			-13.959			-1.745
95401.000			-13.958			-1.745
95502.000			-13.958			-1.745
95600.000			-13.958			-1.745
95700.000			-13.957			-1.745
95801.000			-13.957			-1.745
95900.000			-13.957			-1.745
96000.000			-13.957			-1.745
96101.000			-13.957			-1.745
96201.000			-13.956			-1.745
96302.000			-13.956			-1.745
96401.000			-13.955			-1.744
96500.000			-13.955			-1.744
96601.000			-13.954			-1.744
96700.000			-13.954			-1.744
96800.000			-13.955			-1.744
96901.000			-13.954			-1.744
97000.000			-13.954			-1.744
97101.000			-13.952			-1.744
97202.000			-13.952			-1.744
97300.000			-13.951			-1.744
97400.000			-13.952			-1.744
97501.000			-13.950			-1.744
97600.000			-13.950			-1.744
97700.000			-13.949			-1.744
97801.000			-13.949			-1.744
97901.000			-13.949			-1.744
98001.000			-13.949			-1.744
98101.000			-13.949			-1.744
98200.000			-13.949			-1.744
98300.000			-13.948			-1.744
98401.000			-13.947			-1.743
98500.000			-13.948			-1.744
98600.000			-13.947			-1.743
98701.000			-13.947			-1.743
98801.000			-13.946			-1.743
98901.000			-13.946			-1.743
99001.000			-13.945			-1.743
99100.000			-13.946			-1.743
99200.000			-13.945			-1.743
99301.000			-13.943			-1.743
99400.000			-13.943			-1.743
99500.000			-13.943			-1.743
99602.000			-13.943			-1.743
99701.000			-13.943			-1.743
99802.000			-13.942			-1.743
99900.000			-13.942			-1.743
100000.000			-13.942			-1.743
100101.000			-13.941			-1.743
100200.000			-13.942			-1.743
100300.000			-13.941			-1.743
100401.000			-13.940			-1.743
100501.000			-13.940			-1.743
100601.000			-13.940			-1.743
100701.000			-13.940			-1.742
100800.000			-13.940			-1.742
100900.000			-13.939			-1.742
101001.000			-13.939			-1.742
101100.000			-13.939			-1.742
101200.000			-13.938			-1.742
101302.000			-13.939			-1.742
101401.000			-13.938			-1.742
101500.000			-13.937			-1.742
101601.000			-13.938			-1.742
101700.000			-13.936			-1.742
101800.000			-13.936			-1.742
101901.000			-13.935			-1.742
102000.000			-13.936			-1.742
102100.000			-13.935			-1.742
102202.000			-13.934			-1.742
102301.000			-13.934			-1.742
102400.000			-13.933			-1.742
102501.000			-13.934			-1.742
102600.000			-13.933			-1.742
102700.000			-13.933			-1.742
102800.000			-13.933			-1.742
102900.000			-13.933			-1.742
103002.000			-13.933			-1.742
103101.000			-13.930			-1.741
103200.000			-13.932			-1.741
103301.000			-13.931			-1.741
103400.000			-13.931			-1.741
103500.000			-13.931			-1.741
103601.000			-13.933			-1.742
103700.000			-13.931			-1.741
103801.000			-13.929			-1.741
103902.000			-13.929			-1.741
104000.000			-13.928			-1.741
104100.000			-13.928			-1.741
104201.000			-13.928			-1.741
104300.000			-13.927			-1.741
104400.000			-13.928			-1.741
104501.000			-13.927			-1.741
104601.000			-13.926			-1.741
104701.000			-13.926			-1.741
104802.000			-13.925			-1.741
104900.000			-13.925			-1.741
105000.000			-13.925			-1.741
105101.000			-13.924			-1.740
105200.000			-13.924			-1.740
105300.000			-13.924			-1.741
105401.000			-13.924			-1.741
105501.000			-13.923			-1.740
105601.000			-13.922			-1.740
105701.000			-13.920			-1.740
105800.000			-13.921			-1.740
105900.000			-13.922			-1.740
106000.000			-13.920			-1.740
106100.000			-13.920			-1.740
106201.000			-13.920			-1.740
106301.000			-13.920			-1.740
106401.000			-13.919			-1.740
106502.000			-13.920			-1.740
106600.000			-13.920			-1.740
106700.000			-13.920			-1.740
106801.000			-13.919			-1.740
106900.000			-13.918			-1.740
107000.000			-13.919			-1.740
107101.000			-13.918			-1.740
107201.000			-13.917			-1.740
107301.000			-13.917			-1.740
107401.000			-13.917			-1.740
107500.000			-13.917			-1.740
107600.000			-13.916			-1.739
107701.000			-13.916			-1.739
107800.000			-13.916			-1.739
107900.000			-13.915			-1.739
108001.000			-13.915			-1.739
108101.000			-13.915			-1.739
108201.000			-13.915			-1.739
108301.000			-13.914			-1.739
108400.000			-13.913			-1.739
108500.000			-13.913			-1.739
108601.000			-13.914			-1.739
108700.000			-13.913			-1.739
108800.000			-13.913			-1.739
108902.000			-13.913			-1.739
109001.000			-13.912			-1.739
109102.000			-13.912			-1.739
109200.000			-13.912			-1.739
109300.000			-13.911			-1.739
109401.000			-13.911			-1.739
109500.000			-13.910			-1.739
109600.000			-13.909			-1.739
109701.000			-13.910			-1.739
109801.000			-13.910			-1.739
109901.000			-13.909			-1.739
110001.000			-13.909			-1.739
110100.000			-13.908			-1.739
110200.000			-13.908			-1.739
110301.000			-13.908			-1.738
110400.000			-13.908			-1.739
110500.000			-13.908			-1.739
110602.000			-13.907			-1.738
110701.000			-13.907			-1.738
110800.000			-13.906			-1.738
110901.000			-13.907			-1.738
111000.000			-13.906			-1.738
111100.000			-13.904			-1.738
111201.000			-13.904			-1.738
111300.000			-13.904			-1.738
111401.000			-13.904			-1.738
111502.000			-13.905			-1.738
111601.000			-13.904			-1.738
111700.000			-13.903			-1.738
111801.000			-13.903			-1.738
111900.000			-13.903			-1.738
112000.000			-13.903			-1.738
112101.000			-13.902			-1.738
112200.000			-13.902			-1.738
112302.000			-13.901			-1.738
112401.000			-13.901			-1.738
112500.000			-13.902			-1.738
112601.000			-13.901			-1.738
112700.000			-13.901			-1.738
112800.000			-13.901			-1.738
112901.000			-13.900			-1.738
113000.000			-13.899			-1.737
113101.000			-13.899			-1.737
113202.000			-13.899			-1.737
113300.000			-13.897			-1.737
113400.000			-13.897			-1.737
113501.000			-13.898			-1.737
113600.000			-13.898			-1.737
113700.000			-13.897			-1.737
113801.000			-13.896			-1.737
113900.000			-13.896			-1.737
114001.000			-13.896			-1.737
114102.000			-13.896			-1.737
114200.000			-13.896			-1.737
114300.000			-13.895			-1.737
114401.000			-13.894			-1.737
114500.000			-13.894			-1.737
114600.000			-13.895			-1.737
114701.000			-13.894			-1.737
114801.000			-13.893			-1.737
114901.000			-13.892			-1.737
115002.000			-13.892			-1.736
115100.000			-13.892			-1.736
115200.000			-13.892			-1.736
115301.000			-13.892			-1.736
115400.000			-13.891			-1.736
115500.000			-13.892			-1.736
115600.000			-13.892			-1.736
115701.000			-13.890			-1.736
115802.000			-13.889			-1.736
115901.000			-13.889			-1.736
116000.000			-13.890			-1.736
116101.000			-13.890			-1.736
116200.000			-13.890			-1.736
116300.000			-13.890			-1.736
116401.000			-13.888			-1.736
116500.000			-13.888			-1.736
116601.000			-13.887			-1.736
116702.000			-13.887			-1.736
116800.000			-13.888			-1.736
116900.000			-13.887			-1.736
117001.000			-13.887			-1.736
117100.000			-13.886			-1.736
117200.000			-13.885			-1.736
117301.000			-13.885			-1.736
117400.000			-13.885			-1.736
117501.000			-13.885			-1.736
117602.000			-13.884			-1.736
117700.000			-13.884			-1.736
117800.000			-13.884			-1.736
117901.000			-13.885			-1.736
118000.000			-13.884			-1.735
118100.000			-13.883			-1.735
118201.000			-13.883			-1.735
118301.000			-13.883			-1.735
118401.000			-13.883			-1.735
118502.000			-13.882			-1.735
118600.000			-13.882			-1.735
118700.000			-13.882			-1.735
118800.000			-13.881			-1.735
118900.000			-13.881			-1.735
119001.000			-13.881			-1.735
119100.000			-13.881			-1.735
119200.000			-13.880			-1.735
119302.000			-13.880			-1.735
119401.000			-13.879			-1.735
119500.000			-13.879			-1.735
119601.000			-13.879			-1.735
119700.000			-13.879			-1.735
119800.000			-13.879			-1.735
119901.000			-13.879			-1.735
120000.000			-13.878			-1.735
120101.000			-13.877			-1.735
120202.000			-13.876			-1.735
120301.000			-13.877			-1.735
120400.000			-13.877			-1.735
120501.000			-13.876			-1.735
120600.000			-13.876			-1.735
120700.000			-13.876			-1.734
120801.000			-13.876			-1.734
120900.000			-13.874			-1.734
121001.000			-13.874			-1.734
121102.000			-13.874			-1.734
121200.000			-13.875			-1.734
121300.000			-13.875			-1.734
121401.000			-13.875			-1.734
121500.000			-13.874			-1.734
121600.000			-13.874			-1.734
121701.000			-13.873			-1.734
121800.000			-13.873			-1.734
121902.000			-13.873			-1.734
122001.000			-13.872			-1.734
122100.000			-13.872			-1.734
122201.000			-13.871			-1.734
122300.000			-13.870			-1.734
122400.000			-13.870			-1.734
122501.000			-13.870			-1.734
122600.000			-13.869			-1.734
122701.000			-13.870			-1.734
122802.000			-13.870			-1.734
122900.000			-13.870			-1.734
123000.000			-13.870			-1.734
123101.000			-13.870			-1.734
123200.000			-13.870			-1.734
123300.000			-13.869			-1.734
123401.000			-13.868			-1.734
123500.000			-13.868			-1.734
123601.000			-13.868			-1.733
123702.000			-13.867			-1.733
123800.000			-13.867			-1.733
123900.000			-13.867			-1.733
124001.000			-13.867			-1.733
124100.000			-13.866			-1.733
124200.000			-13.866			-1.733
124301.000			-13.866			-1.733
124401.000			-13.867			-1.733
124501.000			-13.866			-1.733
124602.000			-13.864			-1.733
124700.000			-13.864			-1.733
124800.000			-13.865			-1.733
124901.000			-13.865			-1.733
125000.000			-13.864			-1.733
125100.000			-13.863			-1.733
125200.000			-13.863			-1.733
125301.000			-13.863			-1.733
125402.000			-13.862			-1.733
125501.000			-13.862			-1.733
125600.000			-13.863			-1.733
125701.000			-13.862			-1.733
125800.000			-13.862			-1.733
125900.000			-13.861			-1.733
126001.000			-13.861			-1.733
126100.000			-13.862			-1.733
126201.000			-13.861			-1.733
126302.000			-13.860			-1.733
126400.000			-13.860			-1.733
126500.000			-13.860			-1.733
126601.000			-13.860			-1.732
126700.000			-13.859			-1.732
126800.000			-13.858			-1.732
126901.000			-13.858			-1.732
127000.000			-13.858			-1.732
127101.000			-13.857			-1.732
127202.000			-13.858			-1.732
127300.000			-13.858			-1.732
127400.000			-13.857			-1.732
127501.000			-13.856			-1.732
127600.000			-13.857			-1.732
127700.000			-13.857			-1.732
127801.000			-13.856			-1.732
127901.000			-13.856			-1.732
128001.000			-13.856			-1.732
128102.000			-13.855			-1.732
128200.000			-13.855			-1.732
128300.000			-13.855			-1.732
128400.000			-13.855			-1.732
128500.000			-13.855			-1.732
128601.000			-13.855			-1.732
128700.000			-13.855			-1.732
128801.000			-13.853			-1.732
128902.000			-13.852			-1.732
129001.000			-13.852			-1.732
129100.000			-13.852			-1.732
129201.000			-13.852			-1.731
129300.000			-13.851			-1.731
129400.000			-13.851			-1.731
129501.000			-13.852			-1.732
129600.000			-13.852			-1.731
129701.000			-13.851			-1.731
129802.000			-13.851			-1.731
129900.000			-13.851			-1.731
130000.000			-13.851			-1.731
130101.000			-13.849			-1.731
130200.000			-13.850			-1.731
130300.000			-13.849			-1.731
130401.000			-13.848			-1.731
130501.000			-13.848			-1.731
130601.000			-13.849			-1.731
130702.000			-13.848			-1.731
130800.000			-13.848			-1.731
130900.000			-13.847			-1.731
131001.000			-13.847			-1.731
131100.000			-13.847			-1.731
131200.000			-13.847			-1.731
131301.000			-13.847			-1.731
131401.000			-13.845			-1.731
131502.000			-13.845			-1.731
131601.000			-13.846			-1.731
131700.000			-13.845			-1.731
131801.000			-13.845			-1.731
131900.000			-13.844			-1.731
132000.000			-13.844			-1.731
132101.000			-13.844			-1.731
132200.000			-13.845			-1.731
132300.000			-13.845			-1.731
132402.000			-13.845			-1.731
132501.000			-13.843			-1.730
132600.000			-13.843			-1.730
132701.000			-13.843			-1.730
132800.000			-13.841			-1.730
132900.000			-13.841			-1.730
133001.000			-13.842			-1.730
133100.000			-13.841			-1.730
133200.000			-13.841			-1.730
133302.000			-13.840			-1.730
133401.000			-13.840			-1.730
133500.000			-13.840			-1.730
133601.000			-13.840			-1.730
133700.000			-13.840			-1.730
133800.000			-13.840			-1.730
133901.000			-13.840			-1.730
134000.000			-13.839			-1.730
134100.000			-13.839			-1.730
134202.000			-13.840			-1.730
134301.000			-13.839			-1.730
134401.000			-13.838			-1.730
134501.000			-13.837			-1.730
134600.000			-13.837			-1.730
134700.000			-13.837			-1.730
134800.000			-13.836			-1.730
134900.000			-13.837			-1.730
135001.000			-13.836			-1.730
135100.000			-13.836			-1.730
135201.000			-13.837			-1.730
135302.000			-13.836			-1.729
135400.000			-13.835			-1.729
135500.000			-13.835			-1.729
135601.000			-13.835			-1.729
135700.000			-13.834			-1.729
135800.000			-13.834			-1.729
135901.000			-13.833			-1.729
136000.000			-13.834			-1.729
136101.000			-13.834			-1.729
136202.000			-13.833			-1.729
136301.000			-13.832			-1.729
136400.000			-13.834			-1.729
136501.000			-13.833			-1.729
136600.000			-13.831			-1.729
136700.000			-13.832			-1.729
136801.000			-13.832			-1.729
136900.000			-13.831			-1.729
137000.000			-13.831			-1.729
137102.000			-13.831			-1.729
137201.000			-13.830			-1.729
137300.000			-13.831			-1.729
137401.000			-13.831			-1.729
137500.000			-13.830			-1.729
137600.000			-13.830			-1.729
137701.000			-13.830			-1.729
137800.000			-13.829			-1.729
137900.000			-13.829			-1.729
138002.000			-13.829			-1.729
138101.000			-13.829			-1.729
138202.000			-13.827			-1.728
138300.000			-13.827			-1.728
138400.000			-13.827			-1.728
138501.000			-13.828			-1.728
138600.000			-13.826			-1.728
138700.000			-13.826			-1.728
138801.000			-13.827			-1.728
138900.000			-13.827			-1.728
139001.000			-13.826			-1.728
139102.000			-13.826			-1.728
139200.000			-13.825			-1.728
139300.000			-13.825			-1.728
139401.000			-13.825			-1.728
139500.000			-13.825			-1.728
139600.000			-13.824			-1.728
139701.000			-13.824			-1.728
139800.000			-13.824			-1.728
139901.000			-13.824			-1.728
140002.000			-13.824			-1.728
140101.000			-13.823			-1.728
140200.000			-13.823			-1.728
140301.000			-13.823			-1.728
140400.000			-13.822			-1.728
140500.000			-13.822			-1.728
140601.000			-13.821			-1.728
140700.000			-13.822			-1.728
140800.000			-13.822			-1.728
140902.000			-13.821			-1.728
141001.000			-13.821			-1.728
141100.000			-13.820			-1.727
141200.000			-13.820			-1.728
141300.000			-13.820			-1.727
141401.000			-13.820			-1.727
141500.000			-13.821			-1.728
141600.000			-13.820			-1.728
141701.000			-13.819			-1.727
141801.000			-13.818			-1.727
141901.000			-13.819			-1.727
142001.000			-13.818			-1.727
142100.000			-13.818			-1.727
142200.000			-13.819			-1.727
142301.000			-13.817			-1.727
142400.000			-13.817			-1.727
142500.000			-13.817			-1.727
142601.000			-13.817			-1.727
142701.000			-13.817			-1.727
142801.000			-13.817			-1.727
142901.000			-13.817			-1.727
143000.000			-13.817			-1.727
143100.000			-13.816			-1.727
143201.000			-13.816			-1.727
143300.000			-13.815			-1.727
143400.000			-13.815			-1.727
143501.000			-13.814			-1.727
143601.000			-13.814			-1.727
143701.000			-13.814			-1.727
143802.000			-13.815			-1.727
143900.000			-13.815			-1.727
144000.000			-13.815			-1.727
144101.000			-13.815			-1.727
144200.000			-13.813			-1.727
144300.000			-13.813			-1.727
144400.000			-13.813			-1.727
144500.000			-13.813			-1.727
144602.000			-13.813			-1.727
144701.000			-13.813			-1.727
144800.000			-13.811			-1.726
144901.000			-13.811			-1.726
145000.000			-13.811			-1.726
145100.000			-13.811			-1.726
145201.000			-13.811			-1.726
145300.000			-13.810			-1.726
145400.000			-13.810			-1.726
145502.000			-13.809			-1.726
145601.000			-13.810			-1.726
145700.000			-13.809			-1.726
145801.000			-13.809			-1.726
145900.000			-13.809			-1.726
146000.000			-13.809			-1.726
146101.000			-13.808			-1.726
146200.000			-13.809			-1.726
146300.000			-13.809			-1.726
146402.000			-13.808			-1.726
146501.000			-13.807			-1.726
146601.000			-13.806			-1.726
146701.000			-13.806			-1.726
146800.000			-13.806			-1.726
146900.000			-13.806			-1.726
147001.000			-13.807			-1.726
147100.000			-13.806			-1.726
147200.000			-13.806			-1.726
147302.000			-13.806			-1.726
147401.000			-13.806			-1.726
147502.000			-13.806			-1.726
147600.000			-13.806			-1.726
147700.000			-13.806			-1.726
147801.000			-13.805			-1.726
147900.000			-13.804			-1.726
148000.000			-13.804			-1.726
148101.000			-13.804			-1.725
148200.000			-13.804			-1.726
148301.000			-13.803			-1.725
148402.000			-13.803			-1.725
148500.000			-13.802			-1.725
148600.000			-13.802			-1.725
148701.000			-13.802			-1.725
148800.000			-13.801			-1.725
148900.000			-13.801			-1.725
149001.000			-13.802			-1.725
149100.000			-13.801			-1.725
149201.000			-13.800			-1.725
149302.000			-13.801			-1.725
149400.000			-13.801			-1.725
149500.000			-13.799			-1.725
149601.000			-13.799			-1.725
149700.000			-13.798			-1.725
149800.000			-13.798			-1.725
149901.000			-13.798			-1.725
150000.000			-13.798			-1.725
150100.000			-13.799			-1.725
150202.000			-13.798			-1.725
150301.000			-13.798			-1.725
150400.000			-13.797			-1.725
150501.000			-13.796			-1.725
150600.000			-13.796			-1.725
150700.000			-13.797			-1.725
150800.000			-13.796			-1.725
150900.000			-13.797			-1.725
151001.000			-13.797			-1.725
151101.000			-13.796			-1.724
151201.000			-13.796			-1.724
151302.000			-13.796			-1.725
151400.000			-13.796			-1.724
151500.000			-13.794			-1.724
151601.000			-13.794			-1.724
151700.000			-13.794			-1.724
151800.000			-13.794			-1.724
151901.000			-13.794			-1.724
152000.000			-13.795			-1.724
152101.000			-13.794			-1.724
152202.000			-13.795			-1.724
152301.000			-13.793			-1.724
152400.000			-13.792			-1.724
152501.000			-13.792			-1.724
152600.000			-13.793			-1.724
152700.000			-13.793			-1.724
152801.000			-13.791			-1.724
152900.000			-13.791			-1.724
153000.000			-13.792			-1.724
153102.000			-13.791			-1.724
153201.000			-13.790			-1.724
153300.000			-13.789			-1.724
153401.000			-13.790			-1.724
153500.000			-13.791			-1.724
153600.000			-13.791			-1.724
153701.000			-13.790			-1.724
153800.000			-13.789			-1.724
153900.000			-13.789			-1.724
154002.000			-13.789			-1.724
154101.000			-13.788			-1.724
154202.000			-13.789			-1.724
154300.000			-13.789			-1.724
154400.000			-13.788			-1.724
154501.000			-13.788			-1.724
154600.000			-13.789			-1.724
154700.000			-13.789			-1.724
154801.000			-13.788			-1.723
154900.000			-13.788			-1.723
155001.000			-13.787			-1.723
155102.000			-13.785			-1.723
155201.000			-13.786			-1.723
155300.000			-13.787			-1.723
155401.000			-13.786			-1.723
155500.000			-13.786			-1.723
155600.000			-13.786			-1.723
155701.000			-13.786			-1.723
155800.000			-13.785			-1.723
155900.000			-13.786			-1.723
156002.000			-13.784			-1.723
156101.000			-13.784			-1.723
156200.000			-13.785			-1.723
156301.000			-13.784			-1.723
156400.000			-13.784			-1.723
156500.000			-13.783			-1.723
156601.000			-13.783			-1.723
156700.000			-13.783			-1.723
156800.000			-13.783			-1.723
156902.000			-13.784			-1.723
157001.000			-13.783			-1.723
157102.000			-13.782			-1.723
157200.000			-13.782			-1.723
157300.000			-13.783			-1.723
157401.000			-13.781			-1.723
157500.000			-13.781			-1.723
157600.000			-13.782			-1.723
157701.000			-13.781			-1.723
157800.000			-13.780			-1.723
157901.000			-13.780			-1.722
158002.000			-13.780			-1.722
158101.000			-13.779			-1.722
158200.000			-13.780			-1.723
158301.000			-13.780			-1.723
158400.000			-13.779			-1.722
158500.000			-13.778			-1.722
158601.000			-13.779			-1.722
158700.000			-13.780			-1.722
158800.000			-13.779			-1.722
158902.000			-13.779			-1.722
159001.000			-13.779			-1.722
159101.000			-13.777			-1.722
159201.000			-13.776			-1.722
159300.000			-13.777			-1.722
159400.000			-13.777			-1.722
159501.000			-13.776			-1.722
159600.000			-13.776			-1.722
159700.000			-13.778			-1.722
159801.000			-13.778			-1.722
159901.000			-13.776			-1.722
160001.000			-13.775			-1.722
160101.000			-13.775			-1.722
160200.000			-13.774			-1.722
160300.000			-13.774			-1.722
160400.000			-13.774			-1.722
160500.000			-13.775			-1.722
160601.000			-13.775			-1.722
160700.000			-13.775			-1.722
160801.000			-13.774			-1.722
160902.000			-13.773			-1.722
161001.000			-13.773			-1.722
161100.000			-13.772			-1.722
161201.000			-13.772			-1.722
161300.000			-13.772			-1.722
161400.000			-13.772			-1.722
161501.000			-13.773			-1.722
161600.000			-13.772			-1.721
161700.000			-13.772			-1.721
161802.000			-13.772			-1.722
161901.000			-13.771			-1.721
162000.000			-13.771			-1.721
162101.000			-13.771			-1.721
162200.000			-13.770			-1.721
162300.000			-13.770			-1.721
162401.000			-13.770			-1.721
162500.000			-13.770			-1.721
162600.000			-13.770			-1.721
162702.000			-13.770			-1.721
162801.000			-13.769			-1.721
162901.000			-13.768			-1.721
163001.000			-13.769			-1.721
163100.000			-13.769			-1.721
163200.000			-13.768			-1.721
163301.000			-13.768			-1.721
163400.000			-13.768			-1.721
163500.000			-13.768			-1.721
163600.000			-13.769			-1.721
163701.000			-13.769			-1.721
163802.000			-13.768			-1.721
163900.000			-13.766			-1.721
164000.000			-13.766			-1.721
164101.000			-13.766			-1.721
164200.000			-13.767			-1.721
164300.000			-13.767			-1.721
164401.000			-13.766			-1.721
164500.000			-13.766			-1.721
164600.000			-13.766			-1.721
164702.000			-13.765			-1.721
164801.000			-13.765			-1.721
164900.000			-13.765			-1.721
165001.000			-13.765			-1.721
165100.000			-13.764			-1.721
165200.000			-13.764			-1.720
165301.000			-13.764			-1.720
165400.000			-13.765			-1.721
165500.000			-13.765			-1.721
165602.000			-13.764			-1.720
165701.000			-13.764			-1.720
165801.000			-13.764			-1.720
165901.000			-13.763			-1.720
166000.000			-13.763			-1.720
166100.000			-13.762			-1.720
166201.000			-13.762			-1.720
166300.000			-13.761			-1.720
166400.000			-13.763			-1.720
166501.000			-13.762			-1.720
166601.000			-13.762			-1.720
166702.000			-13.761			-1.720
166800.000			-13.761			-1.720
166900.000			-13.761			-1.720
167001.000			-13.760			-1.720
167100.000			-13.760			-1.720
167200.000			-13.760			-1.720
167301.000			-13.759			-1.720
167400.000			-13.760			-1.720
167501.000			-13.760			-1.720
167602.000			-13.759			-1.720
167701.000			-13.759			-1.720
167800.000			-13.758			-1.720
167901.000			-13.758			-1.720
168000.000			-13.758			-1.720
168100.000			-13.758			-1.720
168201.000			-13.758			-1.720
168300.000			-13.757			-1.720
168400.000			-13.757			-1.720
168502.000			-13.758			-1.720
168601.000			-13.757			-1.720
168701.000			-13.757			-1.720
168801.000			-13.756			-1.719
168900.000			-13.756			-1.720
169000.000			-13.756			-1.719
169101.000			-13.756			-1.719
169200.000			-13.756			-1.720
169300.000			-13.756			-1.720
169401.000			-13.756			-1.719
169501.000			-13.756			-1.719
169601.000			-13.756			-1.719
169701.000			-13.754			-1.719
169800.000			-13.755			-1.719
169900.000			-13.754			-1.719
170000.000			-13.754			-1.719
170100.000			-13.753			-1.719
170201.000			-13.753			-1.719
170300.000			-13.754			-1.719
170401.000			-13.753			-1.719
170502.000			-13.752			-1.719
170601.000			-13.752			-1.719
170700.000			-13.751			-1.719
170801.000			-13.751			-1.719
170900.000			-13.752			-1.719
171000.000			-13.752			-1.719
171101.000			-13.752			-1.719
171200.000			-13.751			-1.719
171300.000			-13.751			-1.719
171402.000			-13.751			-1.719
171501.000			-13.751			-1.719
171600.000			-13.751			-1.719
171701.000			-13.752			-1.719
171800.000			-13.751			-1.719
171900.000			-13.750			-1.719
172001.000			-13.749			-1.719
172100.000			-13.748			-1.719
172200.000			-13.749			-1.719
172302.000			-13.749			-1.719
172401.000			-13.749			-1.719
172501.000			-13.749			-1.719
172601.000			-13.749			-1.719
172700.000			-13.749			-1.719
172800.000			-13.748			-1.718
172901.000			-13.747			-1.718
173000.000			-13.748			-1.718
173100.000			-13.748			-1.718
173200.000			-13.748			-1.718
173301.000			-13.747			-1.718
173402.000			-13.746			-1.718
173501.000			-13.746			-1.718
173600.000			-13.746			-1.718
173701.000			-13.746			-1.718
173800.000			-13.746			-1.718
173900.000			-13.747			-1.718
174001.000			-13.746			-1.718
174100.000			-13.745			-1.718
174200.000			-13.746			-1.718
174302.000			-13.746			-1.718
174401.000			-13.745			-1.718
174500.000			-13.745			-1.718
174601.000			-13.744			-1.718
174700.000			-13.744			-1.718
174800.000			-13.744			-1.718
174901.000			-13.744			-1.718
175000.000			-13.744			-1.718
175100.000			-13.744			-1.718
175202.000			-13.743			-1.718
175301.000			-13.743			-1.718
175401.000			-13.743			-1.718
175501.000			-13.743			-1.718
175600.000			-13.743			-1.718
175700.000			-13.742			-1.718
175801.000			-13.742			-1.718
175900.000			-13.742			-1.718
176000.000			-13.742			-1.718
176101.000			-13.742			-1.718
176201.000			-13.741			-1.718
176302.000			-13.741			-1.718
176400.000			-13.741			-1.718
176500.000			-13.741			-1.718
176601.000			-13.741			-1.718
176700.000			-13.740			-1.718
176800.000			-13.741			-1.718
176901.000			-13.740			-1.718
177000.000			-13.740			-1.718
177101.000			-13.740			-1.717
177202.000			-13.739			-1.717
177301.000			-13.738			-1.717
177400.000			-13.739			-1.717
177501.000			-13.738			-1.717
177600.000			-13.739			-1.717
177700.000			-13.738			-1.717
177801.000			-13.737			-1.717
177900.000			-13.737			-1.717
178000.000			-13.737			-1.717
178102.000			-13.738			-1.717
178201.000			-13.738			-1.717
178301.000			-13.737			-1.717
178401.000			-13.737			-1.717
178500.000			-13.736			-1.717
178600.000			-13.737			-1.717
178701.000			-13.736			-1.717
178800.000			-13.735			-1.717
178900.000			-13.735			-1.717
179001.000			-13.735			-1.717
179101.000			-13.735			-1.717
179201.000			-13.734			-1.717
179301.000			-13.735			-1.717
179400.000			-13.735			-1.717
179500.000			-13.734			-1.717
179600.000			-13.735			-1.717
179700.000			-13.733			-1.717
179801.000			-13.734			-1.717
179900.000			-13.733			-1.717
180000.000			-13.733			-1.717
180102.000			-13.733			-1.717
180201.000			-13.732			-1.717
180300.000			-13.732			-1.716
180401.000			-13.732			-1.716
180500.000			-13.732			-1.716
180600.000			-13.732			-1.717
180701.000			-13.733			-1.717
180800.000			-13.732			-1.717
180900.000			-13.732			-1.717
181002.000			-13.731			-1.716
181101.000			-13.730			-1.716
181200.000			-13.730			-1.716
181301.000			-13.729			-1.716
181400.000			-13.729			-1.716
181500.000			-13.730			-1.716
181601.000			-13.730			-1.716
181700.000			-13.730			-1.716
181800.000			-13.730			-1.716
181902.000			-13.730			-1.716
182001.000			-13.730			-1.716
182100.000			-13.729			-1.716
182201.000			-13.729			-1.716
182300.000			-13.729			-1.716
182400.000			-13.728			-1.716
182501.000			-13.728			-1.716
182600.000			-13.728			-1.716
182700.000			-13.728			-1.716
182802.000			-13.728			-1.716
182901.000			-13.727			-1.716
183002.000			-13.727			-1.716
183100.000			-13.728			-1.716
183200.000			-13.727			-1.716
183301.000			-13.726			-1.716
183400.000			-13.726			-1.716
183500.000			-13.727			-1.716
183601.000			-13.726			-1.716
183700.000			-13.725			-1.716
183801.000			-13.725			-1.716
183902.000			-13.724			-1.716
184000.000			-13.725			-1.716
184100.000			-13.725			-1.716
184201.000			-13.725			-1.716
184300.000			-13.725			-1.716
184400.000			-13.724			-1.715
184501.000			-13.723			-1.715
184600.000			-13.723			-1.715
184701.000			-13.723			-1.715
184802.000			-13.723			-1.715
184901.000			-13.723			-1.715
185000.000			-13.723			-1.715
185101.000			-13.723			-1.715
185200.000			-13.724			-1.715
185300.000			-13.723			-1.715
185401.000			-13.722			-1.715
185500.000			-13.722			-1.715
185600.000			-13.722			-1.715
185702.000			-13.722			-1.715
185801.000			-13.721			-1.715
185900.000			-13.720			-1.715
186000.000			-13.721			-1.715
186100.000			-13.720			-1.715
186201.000			-13.719			-1.715
186300.000			-13.720			-1.715
186400.000			-13.719			-1.715
186501.000			-13.719			-1.715
186601.000			-13.720			-1.715
186701.000			-13.719			-1.715
186802.000			-13.719			-1.715
186900.000			-13.720			-1.715
187000.000			-13.719			-1.715
187101.000			-13.717			-1.715
187200.000			-13.718			-1.715
187300.000			-13.718			-1.715
187401.000			-13.718			-1.715
187500.000			-13.718			-1.715
187601.000			-13.718			-1.715
187702.000			-13.717			-1.715
187801.000			-13.716			-1.715
187900.000			-13.716			-1.715
188001.000			-13.717			-1.715
188100.000			-13.716			-1.715
188200.000			-13.716			-1.714
188301.000			-13.716			-1.715
188400.000			-13.716			-1.715
188500.000			-13.716			-1.714
188602.000			-13.715			-1.714
188701.000			-13.715			-1.714
188800.000			-13.715			-1.714
188901.000			-13.715			-1.714
189000.000			-13.715			-1.714
189100.000			-13.714			-1.714
189200.000			-13.714			-1.714
189300.000			-13.714			-1.714
189401.000			-13.714			-1.714
189500.000			-13.714			-1.714
189601.000			-13.713			-1.714
189702.000			-13.713			-1.714
189800.000			-13.714			-1.714
189900.000			-13.715			-1.714
190001.000			-13.714			-1.714
190100.000			-13.713			-1.714
190200.000			-13.712			-1.714
190301.000			-13.712			-1.714
190400.000			-13.713			-1.714
190501.000			-13.712			-1.714
190602.000			-13.712			-1.714
190701.000			-13.711			-1.714
190800.000			-13.711			-1.714
190901.000			-13.711			-1.714
191000.000			-13.712			-1.714
191100.000			-13.711			-1.714
191201.000			-13.712			-1.714
191300.000			-13.712			-1.714
191401.000			-13.711			-1.714
191502.000			-13.711			-1.714
191601.000			-13.710			-1.714
191700.000			-13.710			-1.714
191801.000			-13.710			-1.714
191900.000			-13.710			-1.714
192000.000			-13.710			-1.714
192101.000			-13.709			-1.714
192200.000			-13.709			-1.714
192300.000			-13.708			-1.714
192402.000			-13.709			-1.714
192501.000			-13.709			-1.714
192601.000			-13.709			-1.714
192700.000			-13.708			-1.713
192800.000			-13.708			-1.713
192901.000			-13.709			-1.714
193000.000			-13.709			-1.714
193100.000			-13.709			-1.714
193201.000			-13.708			-1.713
193301.000			-13.707			-1.713
193401.000			-13.707			-1.713
193502.000			-13.707			-1.713
193600.000			-13.706			-1.713
193700.000			-13.705			-1.713
193801.000			-13.705			-1.713
193900.000			-13.706			-1.713
194000.000			-13.707			-1.713
194101.000			-13.707			-1.713
194200.000			-13.706			-1.713
194301.000			-13.705			-1.713
194402.000			-13.705			-1.713
194500.000			-13.705			-1.713
194600.000			-13.705			-1.713
194701.000			-13.705			-1.713
194800.000			-13.704			-1.713
194900.000			-13.704			-1.713
195001.000			-13.703			-1.713
195100.000			-13.704			-1.713
195201.000			-13.704			-1.713
195302.000			-13.703			-1.713
195401.000			-13.703			-1.713
195500.000			-13.702			-1.713
195600.000			-13.702			-1.713
195700.000			-13.703			-1.713
195801.000			-13.703			-1.713
195900.000			-13.701			-1.713
196000.000			-13.701			-1.713
196101.000			-13.702			-1.713
196201.000			-13.702			-1.713
196301.000			-13.702			-1.713
196401.000			-13.702			-1.713
196500.000			-13.701			-1.713
196600.000			-13.701			-1.713
196701.000			-13.702			-1.713
196800.000			-13.701			-1.713
196900.000			-13.701			-1.713
197001.000			-13.700			-1.713
197101.000			-13.699			-1.712
197201.000			-13.699			-1.712
197302.000			-13.699			-1.712
197400.000			-13.699			-1.712
197500.000			-13.699			-1.712
197601.000			-13.699			-1.712
197700.000			-13.699			-1.712
197800.000			-13.698			-1.712
197901.000			-13.699			-1.712
198000.000			-13.698			-1.712
198101.000			-13.698			-1.712
198202.000			-13.698			-1.712
198301.000			-13.698			-1.712
198400.000			-13.698			-1.712
198501.000			-13.697			-1.712
198600.000			-13.696			-1.712
198700.000			-13.697			-1.712
198800.000			-13.697			-1.712
198900.000			-13.696			-1.712
199001.000			-13.695			-1.712
199100.000			-13.696			-1.712
199201.000			-13.696			-1.712
199302.000			-13.696			-1.712
199400.000			-13.696			-1.712
199500.000			-13.695			-1.712
199601.000			-13.695			-1.712
199700.000			-13.694			-1.712
199800.000			-13.695			-1.712
199901.000			-13.696			-1.712
200000.000			-13.695			-1.712
200100.000			-13.695			-1.712
200202.000			-13.693			-1.712
200301.000			-13.694			-1.712
200400.000			-13.693			-1.712
200501.000			-13.694			-1.712
200600.000			-13.694			-1.712
200700.000			-13.693			-1.712
200801.000			-13.693			-1.712
200900.000			-13.693			-1.712
201000.000			-13.692			-1.712
201102.000			-13.693			-1.712
201201.000			-13.693			-1.712
201300.000			-13.693			-1.712
201401.000			-13.692			-1.712
201500.000			-13.692			-1.712
201600.000			-13.691			-1.711
201701.000			-13.691			-1.711
201800.000			-13.691			-1.711
201900.000			-13.691			-1.711
202002.000			-13.690			-1.711
202101.000			-13.690			-1.711
202202.000			-13.691			-1.711
202300.000			-13.690			-1.711
202400.000			-13.691			-1.711
202501.000			-13.691			-1.711
202600.000			-13.691			-1.711
202700.000			-13.690			-1.711
202801.000			-13.690			-1.711
202901.000			-13.690			-1.711
203001.000			-13.688			-1.711
203102.000			-13.689			-1.711
203200.000			-13.689			-1.711
203300.000			-13.690			-1.711
203401.000			-13.689			-1.711
203500.000			-13.689			-1.711
203600.000			-13.688			-1.711
203701.000			-13.688			-1.711
203800.000			-13.687			-1.711
203901.000			-13.687			-1.711
204002.000			-13.688			-1.711
204101.000			-13.688			-1.711
204200.000			-13.687			-1.711
204301.000			-13.687			-1.711
204400.000			-13.687			-1.711
204500.000			-13.687			-1.711
204601.000			-13.686			-1.711
204700.000			-13.685			-1.711
204800.000			-13.686			-1.711
204902.000			-13.685			-1.711
205001.000			-13.684			-1.711
205100.000			-13.685			-1.711
205200.000			-13.685			-1.711
205300.000			-13.685			-1.711
205401.000			-13.685			-1.711
205500.000			-13.685			-1.711
205600.000			-13.685			-1.711
205701.000			-13.683			-1.710
205801.000			-13.683			-1.710
205901.000			-13.683			-1.710
206001.000			-13.684			-1.710
206100.000			-13.684			-1.710
206200.000			-13.684			-1.711
206301.000			-13.684			-1.710
206400.000			-13.683			-1.710
206500.000			-13.683			-1.710
206601.000			-13.683			-1.710
206701.000			-13.683			-1.710
206801.000			-13.682			-1.710
206901.000			-13.682			-1.710
207000.000			-13.681			-1.710
207100.000			-13.681			-1.710
207201.000			-13.681			-1.710
207300.000			-13.681			-1.710
207400.000			-13.680			-1.710
207501.000			-13.681			-1.710
207601.000			-13.681			-1.710
207701.000			-13.680			-1.710
207802.000			-13.680			-1.710
207900.000			-13.680			-1.710
208000.000			-13.681			-1.710
208101.000			-13.680			-1.710
208200.000			-13.679			-1.710
208300.000			-13.679			-1.710
208400.000			-13.678			-1.710
208500.000			-13.678			-1.710
208602.000			-13.680			-1.710
208701.000			-13.680			-1.710
208801.000			-13.678			-1.710
208901.000			-13.678			-1.710
209000.000			-13.679			-1.710
209100.000			-13.679			-1.710
209201.000			-13.678			-1.710
209300.000			-13.678			-1.710
209400.000			-13.677			-1.710
209501.000			-13.677			-1.710
209601.000			-13.678			-1.710
209701.000			-13.677			-1.710
209801.000			-13.677			-1.710
209900.000			-13.676			-1.710
210000.000			-13.676			-1.710
210101.000			-13.676			-1.710
210200.000			-13.676			-1.710
210300.000			-13.678			-1.710
210401.000			-13.677			-1.710
210501.000			-13.676			-1.710
210601.000			-13.675			-1.709
210702.000			-13.675			-1.709
210800.000			-13.675			-1.709
210900.000			-13.675			-1.709
211001.000			-13.675			-1.709
211100.000			-13.674			-1.709
211200.000			-13.675			-1.709
211301.000			-13.675			-1.709
211401.000			-13.674			-1.709
211502.000			-13.674			-1.709
211601.000			-13.674			-1.709
211700.000			-13.674			-1.709
211801.000			-13.673			-1.709
211900.000			-13.673			-1.709
212000.000			-13.674			-1.709
212101.000			-13.672			-1.709
212200.000			-13.672			-1.709
212300.000			-13.673			-1.709
212402.000			-13.674			-1.709
212501.000			-13.673			-1.709
212600.000			-13.672			-1.709
212701.000			-13.671			-1.709
212800.000			-13.672			-1.709
212900.000			-13.672			-1.709
213001.000			-13.670			-1.709
213100.000			-13.671			-1.709
213200.000			-13.670			-1.709
213302.000			-13.671			-1.709
213401.000			-13.671			-1.709
213500.000			-13.671			-1.709
213601.000			-13.670			-1.709
213700.000			-13.669			-1.709
213800.000			-13.669			-1.709
213901.000			-13.669			-1.709
214000.000			-13.669			-1.709
214100.000			-13.669			-1.709
214202.000			-13.668			-1.709
214301.000			-13.668			-1.709
214401.000			-13.669			-1.709
214501.000			-13.669			-1.709
214600.000			-13.668			-1.709
214700.000			-13.668			-1.708
214800.000			-13.668			-1.709
214900.000			-13.668			-1.709
215001.000			-13.669			-1.709
215100.000			-13.669			-1.709
215201.000			-13.668			-1.709
215302.000			-13.668			-1.709
215400.000			-13.667			-1.708
215500.000			-13.667			-1.708
215601.000			-13.667			-1.708
215700.000			-13.666			-1.708
215800.000			-13.665			-1.708
215901.000			-13.665			-1.708
216000.000			-13.665			-1.708
216101.000			-13.666			-1.708
216202.000			-13.666			-1.708
216301.000			-13.665			-1.708
216400.000			-13.666			-1.708
216501.000			-13.666			-1.708
216600.000			-13.665			-1.708
216700.000			-13.665			-1.708
216801.000			-13.664			-1.708
216900.000			-13.665			-1.708
217000.000			-13.665			-1.708
217102.000			-13.664			-1.708
217201.000			-13.664			-1.708
217300.000			-13.664			-1.708
217401.000			-13.663			-1.708
217500.000			-13.663			-1.708
217600.000			-13.663			-1.708
217701.000			-13.662			-1.708
217800.000			-13.662			-1.708
217900.000			-13.662			-1.708
218002.000			-13.662			-1.708
218101.000			-13.663			-1.708
218201.000			-13.663			-1.708
218300.000			-13.663			-1.708
218400.000			-13.663			-1.708
218501.000			-13.661			-1.708
218600.000			-13.660			-1.708
218700.000			-13.661			-1.708
218801.000			-13.660			-1.708
218901.000			-13.661			-1.708
219001.000			-13.662			-1.708
219101.000			-13.662			-1.708
219200.000			-13.661			-1.708
219300.000			-13.660			-1.708
219401.000			-13.660			-1.708
219500.000			-13.660			-1.708
219600.000			-13.661			-1.708
219701.000			-13.660			-1.707
219801.000			-13.659			-1.707
219901.000			-13.659			-1.707
220002.000			-13.660			-1.708
220100.000			-13.659			-1.707
220200.000			-13.659			-1.707
220301.000			-13.659			-1.707
220400.000			-13.659			-1.707
220500.000			-13.659			-1.707
220601.000			-13.658			-1.707
220700.000			-13.658			-1.707
220801.000			-13.658			-1.707
220902.000			-13.658			-1.707
221000.000			-13.656			-1.707
221100.000			-13.656			-1.707
221200.000			-13.657			-1.707
221300.000			-13.657			-1.707
221401.000			-13.656			-1.707
221500.000			-13.656			-1.707
221600.000			-13.655			-1.707
221702.000			-13.656			-1.707
221801.000			-13.656			-1.707
221901.000			-13.655			-1.707
222001.000			-13.655			-1.707
222100.000			-13.656			-1.707
222200.000			-13.655			-1.707
222301.000			-13.656			-1.707
222400.000			-13.656			-1.707
222500.000			-13.655			-1.707
222602.000			-13.655			-1.707
222701.000			-13.654			-1.707
222801.000			-13.654			-1.707
222901.000			-13.654			-1.707
223000.000			-13.654			-1.707
223100.000			-13.654			-1.707
223201.000			-13.654			-1.707
223300.000			-13.653			-1.707
223400.000			-13.653			-1.707
223501.000			-13.653			-1.707
223601.000			-13.654			-1.707
223701.000			-13.654			-1.707
223801.000			-13.653			-1.707
223900.000			-13.652			-1.707
224000.000			-13.651			-1.706
224101.000			-13.652			-1.706
224200.000			-13.653			-1.707
224300.000			-13.652			-1.706
224400.000			-13.652			-1.706
224501.000			-13.653			-1.707
224602.000			-13.652			-1.706
224700.000			-13.651			-1.706
224800.000			-13.652			-1.706
224901.000			-13.652			-1.706
225000.000			-13.651			-1.706
225100.000			-13.649			-1.706
225201.000			-13.650			-1.706
225300.000			-13.651			-1.706
225401.000			-13.650			-1.706
225502.000			-13.650			-1.706
225601.000			-13.650			-1.706
225700.000			-13.649			-1.706
225801.000			-13.650			-1.706
225900.000			-13.650			-1.706
226000.000			-13.650			-1.706
226101.000			-13.649			-1.706
226200.000			-13.649			-1.706
226300.000			-13.649			-1.706
226402.000			-13.648			-1.706
226501.000			-13.648			-1.706
226600.000			-13.649			-1.706
226701.000			-13.648			-1.706
226800.000			-13.648			-1.706
226900.000			-13.648			-1.706
227001.000			-13.648			-1.706
227100.000			-13.648			-1.706
227200.000			-13.648			-1.706
227302.000			-13.646			-1.706
227401.000			-13.647			-1.706
227502.000			-13.647			-1.706
227600.000			-13.647			-1.706
227700.000			-13.647			-1.706
227801.000			-13.647			-1.706
227900.000			-13.646			-1.706
228000.000			-13.647			-1.706
228101.000			-13.646			-1.706
228200.000			-13.645			-1.706
228301.000			-13.645			-1.706
228402.000			-13.646			-1.706
228500.000			-13.645			-1.706
228600.000			-13.644			-1.706
228701.000			-13.644			-1.706
228800.000			-13.645			-1.706
228900.000			-13.645			-1.706
229001.000			-13.645			-1.706
229100.000			-13.644			-1.706
229201.000			-13.644			-1.706
229302.000			-13.644			-1.705
229401.000			-13.645			-1.706
229500.000			-13.644			-1.705
229601.000			-13.644			-1.705
229700.000			-13.644			-1.705
229800.000			-13.643			-1.705
229901.000			-13.642			-1.705
230000.000			-13.643			-1.705
230100.000			-13.644			-1.706
230202.000			-13.644			-1.705
230301.000			-13.643			-1.705
230400.000			-13.643			-1.705
230501.000			-13.643			-1.705
230600.000			-13.641			-1.705
230700.000			-13.641			-1.705
230800.000			-13.641			-1.705
230900.000			-13.642			-1.705
231001.000			-13.641			-1.705
231101.000			-13.641			-1.705
231201.000			-13.640			-1.705
231301.000			-13.640			-1.705
231400.000			-13.641			-1.705
231500.000			-13.641			-1.705
231601.000			-13.640			-1.705
231700.000			-13.640			-1.705
231800.000			-13.639			-1.705
231901.000			-13.640			-1.705
232001.000			-13.640			-1.705
232101.000			-13.640			-1.705
232201.000			-13.638			-1.705
232300.000			-13.638			-1.705
232400.000			-13.638			-1.705
232501.000			-13.638			-1.705
232600.000			-13.638			-1.705
232700.000			-13.638			-1.705
232801.000			-13.638			-1.705
232901.000			-13.638			-1.705
233001.000			-13.638			-1.705
233101.000			-13.638			-1.705
233200.000			-13.638			-1.705
233300.000			-13.637			-1.705
233401.000			-13.638			-1.705
233500.000			-13.638			-1.705
233600.000			-13.636			-1.705
233701.000			-13.635			-1.704
233801.000			-13.636			-1.705
233902.000			-13.638			-1.705
234001.000			-13.637			-1.705
234100.000			-13.636			-1.704
234201.000			-13.637			-1.705
234300.000			-13.637			-1.705
234400.000			-13.636			-1.705
234501.000			-13.636			-1.705
234600.000			-13.636			-1.704
234700.000			-13.636			-1.704
234802.000			-13.635			-1.704
234901.000			-13.635			-1.704
235000.000			-13.634			-1.704
235101.000			-13.634			-1.704
235200.000			-13.635			-1.704
235300.000			-13.635			-1.704
235401.000			-13.634			-1.704
235500.000			-13.635			-1.704
235600.000			-13.634			-1.704
235702.000			-13.634			-1.704
235801.000			-13.634			-1.704
235900.000			-13.633			-1.704
236001.000			-13.632			-1.704
236100.000			-13.632			-1.704
236200.000			-13.632			-1.704
236301.000			-13.632			-1.704
236400.000			-13.633			-1.704
236500.000			-13.632			-1.704
236602.000			-13.633			-1.704
236701.000			-13.632			-1.704
236800.000			-13.633			-1.704
236901.000			-13.632			-1.704
237000.000			-13.630			-1.704
237100.000			-13.632			-1.704
237200.000			-13.632			-1.704
237300.000			-13.632			-1.704
237401.000			-13.631			-1.704
237501.000			-13.631			-1.704
237601.000			-13.632			-1.704
237702.000			-13.631			-1.704
237800.000			-13.630			-1.704
237900.000			-13.630			-1.704
238001.000			-13.630			-1.704
238100.000			-13.631			-1.704
238200.000			-13.631			-1.704
238301.000			-13.630			-1.704
238400.000			-13.630			-1.704
238501.000			-13.630			-1.704
238602.000			-13.630			-1.704
238700.000			-13.630			-1.704
238800.000			-13.629			-1.704
238901.000			-13.628			-1.704
239000.000			-13.628			-1.704
239100.000			-13.628			-1.704
239201.000			-13.628			-1.704
239300.000			-13.628			-1.704
239401.000			-13.629			-1.704
239502.000			-13.628			-1.703
239601.000			-13.627			-1.703
239700.000			-13.627			-1.703
239801.000			-13.627			-1.703
239900.000			-13.627			-1.703
240000.000			-13.627			-1.703
240101.000			-13.627			-1.703
240200.000			-13.628			-1.703
240300.000			-13.628			-1.703
240402.000			-13.628			-1.703
240501.000			-13.627			-1.703
240601.000			-13.626			-1.703
240700.000			-13.627			-1.703
240800.000			-13.626			-1.703
240901.000			-13.626			-1.703
241000.000			-13.625			-1.703
241100.000			-13.625			-1.703
241201.000			-13.626			-1.703
241301.000			-13.625			-1.703
241401.000			-13.625			-1.703
241501.000			-13.626			-1.703
241600.000			-13.625			-1.703
241700.000			-13.625			-1.703
241801.000			-13.626			-1.703
241900.000			-13.625			-1.703
242000.000			-13.624			-1.703
242101.000			-13.625			-1.703
242201.000			-13.623			-1.703
242301.000			-13.623			-1.703
242402.000			-13.623			-1.703
242500.000			-13.623			-1.703
242600.000			-13.623			-1.703
242701.000			-13.624			-1.703
242800.000			-13.624			-1.703
242900.000			-13.623			-1.703
243001.000			-13.622			-1.703
243101.000			-13.621			-1.703
243201.000			-13.622			-1.703
243301.000			-13.623			-1.703
243400.000			-13.622			-1.703
243500.000			-13.622			-1.703
243600.000			-13.622			-1.703
243700.000			-13.622			-1.703
243801.000			-13.622			-1.703
243900.000			-13.621			-1.703
244001.000			-13.621			-1.703
244102.000			-13.621			-1.703
244201.000			-13.622			-1.703
244300.000			-13.620			-1.703
244401.000			-13.621			-1.703
244500.000			-13.621			-1.703
244600.000			-13.621			-1.703
244701.000			-13.621			-1.703
244800.000			-13.621			-1.703
244901.000			-13.621			-1.703
245002.000			-13.621			-1.703
245101.000			-13.621			-1.703
245200.000			-13.620			-1.702
245301.000			-13.619			-1.702
245400.000			-13.619			-1.702
245500.000			-13.619			-1.702
245601.000			-13.618			-1.702
245700.000			-13.619			-1.702
245800.000			-13.619			-1.702
245902.000			-13.618			-1.702
246001.000			-13.618			-1.702
246100.000			-13.619			-1.702
246201.000			-13.619			-1.702
246300.000			-13.618			-1.702
246400.000			-13.618			-1.702
246501.000			-13.617			-1.702
246600.000			-13.617			-1.702
246700.000			-13.617			-1.702
246802.000			-13.617			-1.702
246901.000			-13.618			-1.702
247002.000			-13.617			-1.702
247100.000			-13.616			-1.702
247200.000			-13.617			-1.702
247301.000			-13.617			-1.702
247400.000			-13.617			-1.702
247500.000			-13.617			-1.702
247601.000			-13.617			-1.702
247700.000			-13.617			-1.702
247801.000			-13.616			-1.702
247902.000			-13.616			-1.702
248000.000			-13.616			-1.702
248100.000			-13.616			-1.702
248201.000			-13.617			-1.702
248300.000			-13.616			-1.702
248400.000			-13.617			-1.702
248501.000			-13.616			-1.702
248600.000			-13.615			-1.702
248701.000			-13.614			-1.702
248802.000			-13.615			-1.702
248901.000			-13.614			-1.702
249000.000			-13.614			-1.702
249101.000			-13.614			-1.702
249200.000			-13.613			-1.702
249300.000			-13.614			-1.702
249401.000			-13.613			-1.702
249500.000			-13.614			-1.702
249600.000			-13.614			-1.702
249702.000			-13.612			-1.702
249801.000			-13.612			-1.702
249900.000			-13.613			-1.702
250000.000			-13.612			-1.702
250100.000			-13.612			-1.702
250201.000			-13.612			-1.702
250300.000			-13.612			-1.701
250400.000			-13.612			-1.701
250501.000			-13.612			-1.701
250601.000			-13.611			-1.701
250701.000			-13.612			-1.702
250801.000			-13.612			-1.702
250900.000			-13.609			-1.701
251000.000			-13.610			-1.701
251101.000			-13.611			-1.701
251200.000			-13.611			-1.701
251300.000			-13.611			-1.701
251401.000			-13.610			-1.701
251501.000			-13.610			-1.701
251601.000			-13.610			-1.701
251701.000			-13.610			-1.701
251800.000			-13.609			-1.701
251900.000			-13.609			-1.701
252001.000			-13.609			-1.701
252100.000			-13.610			-1.701
252200.000			-13.610			-1.701
252301.000			-13.609			-1.701
252401.000			-13.609			-1.701
252501.000			-13.609			-1.701
252601.000			-13.608			-1.701
252700.000			-13.608			-1.701
252800.000			-13.609			-1.701
252901.000			-13.608			-1.701
253000.000			-13.608			-1.701
253100.000			-13.608			-1.701
253200.000			-13.608			-1.701
253301.000			-13.608			-1.701
253402.000			-13.607			-1.701
253501.000			-13.607			-1.701
253600.000			-13.608			-1.701
253701.000			-13.607			-1.701
253800.000			-13.607			-1.701
253900.000			-13.606			-1.701
254001.000			-13.606			-1.701
254100.000			-13.607			-1.701
254200.000			-13.606			-1.701
254302.000			-13.606			-1.701
254401.000			-13.606			-1.701
254500.000			-13.605			-1.701
254601.000			-13.606			-1.701
254700.000			-13.606			-1.701
254800.000			-13.605			-1.701
254901.000			-13.605			-1.701
255000.000			-13.605			-1.701
255100.000			-13.606			-1.701
255202.000			-13.604			-1.701
255301.000			-13.604			-1.701
255400.000			-13.604			-1.701
255501.000			-13.604			-1.700
255600.000			-13.604			-1.701
255700.000			-13.604			-1.701
255801.000			-13.604			-1.700
255900.000			-13.604			-1.700
256000.000			-13.603			-1.700
256102.000			-13.603			-1.700
256201.000			-13.603			-1.700
256302.000			-13.603			-1.700
256400.000			-13.603			-1.700
256500.000			-13.602			-1.700
256601.000			-13.602			-1.700
256700.000			-13.603			-1.700
256800.000			-13.603			-1.700
256901.000			-13.602			-1.700
257000.000			-13.602			-1.700
257101.000			-13.602			-1.700
257202.000			-13.602			-1.700
257300.000			-13.601			-1.700
257400.000			-13.601			-1.700
257501.000			-13.600			-1.700
257600.000			-13.601			-1.700
257700.000			-13.601			-1.700
257801.000			-13.601			-1.700
257900.000			-13.601			-1.700
258001.000			-13.600			-1.700
258102.000			-13.601			-1.700
258200.000			-13.601			-1.700
258300.000			-13.599			-1.700
258401.000			-13.599			-1.700
258500.000			-13.598			-1.700
258600.000			-13.599			-1.700
258701.000			-13.599			-1.700
258800.000			-13.599			-1.700
258901.000			-13.599			-1.700
259002.000			-13.599			-1.700
259101.000			-13.597			-1.700
259200.000			-13.597			-1.700
259301.000			-13.597			-1.700
259400.000			-13.598			-1.700
259500.000			-13.597			-1.700
259600.000			-13.597			-1.700
259700.000			-13.596			-1.700
259801.000			-13.596			-1.699
259901.000			-13.597			-1.700
260001.000			-13.597			-1.700
260102.000			-13.597			-1.700
260200.000			-13.596			-1.700
260300.000			-13.595			-1.699
260401.000			-13.595			-1.699
260500.000			-13.596			-1.699
260600.000			-13.596			-1.700
260701.000			-13.596			-1.699
260800.000			-13.595			-1.699
260901.000			-13.596			-1.699
261002.000			-13.596			-1.699
261100.000			-13.596			-1.699
261200.000			-13.595			-1.699
261301.000			-13.595			-1.699
261400.000			-13.595			-1.699
261500.000			-13.595			-1.699
261601.000			-13.594			-1.699
261700.000			-13.594			-1.699
261801.000			-13.594			-1.699
261902.000			-13.594			-1.699
262001.000			-13.594			-1.699
262100.000			-13.594			-1.699
262201.000			-13.595			-1.699
262300.000			-13.595			-1.699
262400.000			-13.595			-1.699
262501.000			-13.594			-1.699
262600.000			-13.593			-1.699
262700.000			-13.594			-1.699
262802.000			-13.594			-1.699
262901.000			-13.594			-1.699
263001.000			-13.594			-1.699
263100.000			-13.593			-1.699
263200.000			-13.593			-1.699
263301.000			-13.593			-1.699
263400.000			-13.593			-1.699
263500.000			-13.592			-1.699
263601.000			-13.592			-1.699
263701.000			-13.592			-1.699
263801.000			-13.592			-1.699
263902.000			-13.591			-1.699
264000.000			-13.592			-1.699
264100.000			-13.592			-1.699
264201.000			-13.592			-1.699
264300.000			-13.592			-1.699
264400.000			-13.591			-1.699
264501.000			-13.590			-1.699
264600.000			-13.591			-1.699
264701.000			-13.591			-1.699
264802.000			-13.592			-1.699
264900.000			-13.592			-1.699
265000.000			-13.592			-1.699
265101.000			-13.592			-1.699
265200.000			-13.592			-1.699
265300.000			-13.591			-1.699
265401.000			-13.591			-1.699
265500.000			-13.591			-1.699
265601.000			-13.590			-1.699
265702.000			-13.590			-1.699
265801.000			-13.590			-1.699
265900.000			-13.591			-1.699
266000.000			-13.590			-1.699
266100.000			-13.590			-1.699
266201.000			-13.589			-1.699
266300.000			-13.587			-1.698
266400.000			-13.589			-1.699
266501.000			-13.588			-1.699
266601.000			-13.589			-1.699
266701.000			-13.589			-1.699
266801.000			-13.588			-1.699
266900.000			-13.588			-1.699
267000.000			-13.587			-1.698
267101.000			-13.588			-1.699
267200.000			-13.588			-1.698
267300.000			-13.588			-1.698
267401.000			-13.587			-1.698
267500.000			-13.588			-1.699
267601.000			-13.586			-1.698
267702.000			-13.587			-1.698
267800.000			-13.587			-1.698
267900.000			-13.587			-1.698
268001.000			-13.586			-1.698
268100.000			-13.587			-1.698
268200.000			-13.585			-1.698
268301.000			-13.586			-1.698
268400.000			-13.585			-1.698
268500.000			-13.585			-1.698
268602.000			-13.585			-1.698
268701.000			-13.585			-1.698
268800.000			-13.585			-1.698
268901.000			-13.584			-1.698
269000.000			-13.585			-1.698
269100.000			-13.584			-1.698
269200.000			-13.583			-1.698
269300.000			-13.584			-1.698
269401.000			-13.584			-1.698
269501.000			-13.584			-1.698
269601.000			-13.584			-1.698
269702.000			-13.585			-1.698
269800.000			-13.583			-1.698
269900.000			-13.583			-1.698
270001.000			-13.583			-1.698
270100.000			-13.583			-1.698
270200.000			-13.582			-1.698
270301.000			-13.582			-1.698
270400.000			-13.582			-1.698
270501.000			-13.582			-1.698
270602.000			-13.582			-1.698
270700.000			-13.582			-1.698
270800.000			-13.582			-1.698
270901.000			-13.581			-1.698
271000.000			-13.581			-1.698
271100.000			-13.580			-1.698
271201.000			-13.580			-1.698
271300.000			-13.580			-1.697
271401.000			-13.579			-1.697
271502.000			-13.581			-1.698
271601.000			-13.580			-1.698
271700.000			-13.579			-1.697
271801.000			-13.580			-1.698
271900.000			-13.580			-1.697
272000.000			-13.580			-1.698
272101.000			-13.579			-1.697
272200.000			-13.578			-1.697
272300.000			-13.578			-1.697
272402.000			-13.579			-1.697
272501.000			-13.578			-1.697
272601.000			-13.579			-1.697
272700.000			-13.578			-1.697
272800.000			-13.578			-1.697
272901.000			-13.579			-1.697
273000.000			-13.579			-1.697
273100.000			-13.579			-1.697
273201.000			-13.579			-1.697
273301.000			-13.579			-1.697
273401.000			-13.578			-1.697
273502.000			-13.578			-1.697
273600.000			-13.578			-1.697
273700.000			-13.578			-1.697
273801.000			-13.578			-1.697
273900.000			-13.577			-1.697
274000.000			-13.578			-1.697
274101.000			-13.578			-1.697
274200.000			-13.578			-1.697
274301.000			-13.578			-1.697
274402.000			-13.577			-1.697
274500.000			-13.577			-1.697
274600.000			-13.577			-1.697
274701.000			-13.577			-1.697
274800.000			-13.576			-1.697
274900.000			-13.576			-1.697
275001.000			-13.576			-1.697
275100.000			-13.576			-1.697
275201.000			-13.576			-1.697
275302.000			-13.576			-1.697
275401.000			-13.575			-1.697
275500.000			-13.575			-1.697
275600.000			-13.574			-1.697
275700.000			-13.574			-1.697
275801.000			-13.575			-1.697
275900.000			-13.575			-1.697
276000.000			-13.575			-1.697
276101.000			-13.574			-1.697
276201.000			-13.574			-1.697
276301.000			-13.575			-1.697
276402.000			-13.573			-1.697
276500.000			-13.573			-1.697
276600.000			-13.573			-1.697
276701.000			-13.573			-1.697
276800.000			-13.574			-1.697
276900.000			-13.574			-1.697
277001.000			-13.574			-1.697
277100.000			-13.573			-1.697
277201.000			-13.573			-1.697
277302.000			-13.573			-1.697
277400.000			-13.572			-1.697
277500.000			-13.573			-1.697
277601.000			-13.573			-1.697
277700.000			-13.573			-1.697
277800.000			-13.572			-1.697
277901.000			-13.571			-1.696
278000.000			-13.572			-1.696
278100.000			-13.572			-1.696
278202.000			-13.572			-1.696
278301.000			-13.573			-1.697
278400.000			-13.570			-1.696
278501.000			-13.570			-1.696
278600.000			-13.570			-1.696
278700.000			-13.571			-1.696
278800.000			-13.571			-1.696
278900.000			-13.570			-1.696
279001.000			-13.570			-1.696
279101.000			-13.571			-1.696
279201.000			-13.570			-1.696
279302.000			-13.570			-1.696
279400.000			-13.569			-1.696
279500.000			-13.569			-1.696
279601.000			-13.568			-1.696
279700.000			-13.568			-1.696
279800.000			-13.570			-1.696
279901.000			-13.570			-1.696
280000.000			-13.570			-1.696
280101.000			-13.569			-1.696
280202.000			-13.569			-1.696
280301.000			-13.569			-1.696
280400.000			-13.568			-1.696
280501.000			-13.568			-1.696
280600.000			-13.568			-1.696
280700.000			-13.567			-1.696
280801.000			-13.567			-1.696
280900.000			-13.567			-1.696
281000.000			-13.568			-1.696
281102.000			-13.568			-1.696
281201.000			-13.569			-1.696
281300.000			-13.569			-1.696
281401.000			-13.567			-1.696
281500.000			-13.568			-1.696
281600.000			-13.566			-1.696
281701.000			-13.565			-1.696
281800.000			-13.566			-1.696
281900.000			-13.566			-1.696
282002.000			-13.566			-1.696
282101.000			-13.566			-1.696
282202.000			-13.565			-1.696
282300.000			-13.565			-1.696
282400.000			-13.566			-1.696
282501.000			-13.565			-1.696
282600.000			-13.565			-1.696
282700.000			-13.565			-1.696
282801.000			-13.565			-1.696
282900.000			-13.565			-1.696
283001.000			-13.565			-1.696
283102.000			-13.564			-1.696
283200.000			-13.565			-1.696
283300.000			-13.564			-1.695
283401.000			-13.565			-1.696
283500.000			-13.565			-1.696
283600.000			-13.565			-1.696
283701.000			-13.564			-1.696
283800.000			-13.564			-1.696
283901.000			-13.564			-1.696
284002.000			-13.564			-1.695
284101.000			-13.565			-1.696
284200.000			-13.566			-1.696
284301.000			-13.565			-1.696
284400.000			-13.565			-1.696
284500.000			-13.565			-1.696
284601.000			-13.564			-1.696
284700.000			-13.564			-1.695
284800.000			-13.563			-1.695
284902.000			-13.563			-1.695
285001.000			-13.564			-1.696
285100.000			-13.564			-1.696
285200.000			-13.563			-1.695
285300.000			-13.562			-1.695
285401.000			-13.561			-1.695
285500.000			-13.561			-1.695
285600.000			-13.562			-1.695
285701.000			-13.562			-1.695
285801.000			-13.561			-1.695
285901.000			-13.561			-1.695
286001.000			-13.561			-1.695
286100.000			-13.561			-1.695
286200.000			-13.562			-1.695
286301.000			-13.561			-1.695
286400.000			-13.562			-1.695
286500.000			-13.561			-1.695
286601.000			-13.561			-1.695
286701.000			-13.562			-1.695
286801.000			-13.561			-1.695
286902.000			-13.561			-1.695
287000.000			-13.561			-1.695
287100.000			-13.561			-1.695
287201.000			-13.560			-1.695
287300.000			-13.561			-1.695
287400.000			-13.561			-1.695
287501.000			-13.561			-1.695
287600.000			-13.561			-1.695
287701.000			-13.561			-1.695
287802.000			-13.559			-1.695
287901.000			-13.559			-1.695
288000.000			-13.560			-1.695
288101.000			-13.561			-1.695
288200.000			-13.559			-1.695
288300.000			-13.559			-1.695
288400.000			-13.559			-1.695
288500.000			-13.559			-1.695
288601.000			-13.558			-1.695
288701.000			-13.558			-1.695
288801.000			-13.558			-1.695
288901.000			-13.558			-1.695
289000.000			-13.557			-1.695
289100.000			-13.557			-1.695
289201.000			-13.558			-1.695
289300.000			-13.558			-1.695
289400.000			-13.559			-1.695
289501.000			-13.558			-1.695
289601.000			-13.558			-1.695
289701.000			-13.557			-1.695
289802.000			-13.557			-1.695
289900.000			-13.556			-1.695
290000.000			-13.555			-1.694
290101.000			-13.556			-1.695
290200.000			-13.557			-1.695
290300.000			-13.556			-1.694
290401.000			-13.555			-1.694
290500.000			-13.555			-1.694
290601.000			-13.556			-1.694
290702.000			-13.555			-1.694
290801.000			-13.556			-1.694
290900.000			-13.555			-1.694
291001.000			-13.555			-1.694
291100.000			-13.555			-1.694
291200.000			-13.554			-1.694
291301.000			-13.553			-1.694
291400.000			-13.553			-1.694
291500.000			-13.556			-1.694
291602.000			-13.555			-1.694
291701.000			-13.554			-1.694
291801.000			-13.554			-1.694
291900.000			-13.554			-1.694
292000.000			-13.555			-1.694
292101.000			-13.554			-1.694
292200.000			-13.554			-1.694
292300.000			-13.554			-1.694
292401.000			-13.554			-1.694
292501.000			-13.553			-1.694
292601.000			-13.553			-1.694
292701.000			-13.553			-1.694
292800.000			-13.553			-1.694
292900.000			-13.554			-1.694
293001.000			-13.553			-1.694
293100.000			-13.553			-1.694
293200.000			-13.553			-1.694
293301.000			-13.552			-1.694
293401.000			-13.553			-1.694
293501.000			-13.552			-1.694
293602.000			-13.552			-1.694
293700.000			-13.552			-1.694
293800.000			-13.552			-1.694
293901.000			-13.551			-1.694
294000.000			-13.551			-1.694
294100.000			-13.552			-1.694
294201.000			-13.552			-1.694
294300.000			-13.551			-1.694
294401.000			-13.552			-1.694
294502.000			-13.552			-1.694
294600.000			-13.552			-1.694
294700.000			-13.552			-1.694
294800.000			-13.550			-1.694
294900.000			-13.551			-1.694
295001.000			-13.551			-1.694
295100.000			-13.550			-1.694
295200.000			-13.550			-1.694
295302.000			-13.550			-1.694
295401.000			-13.550			-1.694
295501.000			-13.549			-1.694
295601.000			-13.549			-1.694
295700.000			-13.550			-1.694
295800.000			-13.550			-1.694
295901.000			-13.549			-1.694
296000.000			-13.548			-1.694
296100.000			-13.550			-1.694
296201.000			-13.551			-1.694
296301.000			-13.549			-1.694
296401.000			-13.548			-1.694
296501.000			-13.548			-1.693
296600.000			-13.549			-1.694
296700.000			-13.549			-1.694
296801.000			-13.548			-1.694
296900.000			-13.549			-1.694
297000.000			-13.549			-1.694
297101.000			-13.548			-1.694
297201.000			-13.548			-1.693
297301.000			-13.547			-1.693
297402.000			-13.547			-1.693
297500.000			-13.548			-1.693
297600.000			-13.548			-1.694
297701.000			-13.547			-1.693
297800.000			-13.546			-1.693
297900.000			-13.546			-1.693
298000.000			-13.547			-1.693
298100.000			-13.547			-1.693
298202.000			-13.546			-1.693
298301.000			-13.547			-1.693
298401.000			-13.547			-1.693
298501.000			-13.547			-1.693
298600.000			-13.546			-1.693
298700.000			-13.546			-1.693
298801.000			-13.546			-1.693
298900.000			-13.546			-1.693
299000.000			-13.546			-1.693
299101.000			-13.546			-1.693
299201.000			-13.545			-1.693
299301.000			-13.544			-1.693
299402.000			-13.544			-1.693
299500.000			-13.544			-1.693
299600.000			-13.544			-1.693
299701.000			-13.544			-1.693
299800.000			-13.544			-1.693
299900.000			-13.545			-1.693
