# Acquired on 08/01/2024 12:28:02 
# SPIDER: Creep_-2mm_07714532B-1
# CREEP MEASUREMENT

# time [ms]		force [N]		stiffness [N/mm]
0.000			4.692			-2.346
100.000			5.404			-2.702
202.000			5.669			-2.834
301.000			5.693			-2.847
400.000			5.665			-2.832
501.000			5.643			-2.822
600.000			5.612			-2.806
700.000			5.600			-2.800
801.000			5.589			-2.794
901.000			5.580			-2.790
1001.000			5.571			-2.785
1101.000			5.563			-2.782
1200.000			5.557			-2.778
1300.000			5.550			-2.775
1400.000			5.538			-2.769
1500.000			5.532			-2.766
1601.000			5.527			-2.763
1701.000			5.522			-2.761
1801.000			5.518			-2.759
1901.000			5.515			-2.757
2000.000			5.511			-2.755
2100.000			5.504			-2.752
2201.000			5.500			-2.750
2300.000			5.496			-2.748
2401.000			5.494			-2.747
2502.000			5.490			-2.745
2600.000			5.487			-2.743
2700.000			5.484			-2.742
2801.000			5.478			-2.739
2900.000			5.476			-2.738
3000.000			5.474			-2.737
3101.000			5.471			-2.736
3201.000			5.469			-2.735
3301.000			5.467			-2.733
3401.000			5.465			-2.732
3500.000			5.462			-2.731
3600.000			5.458			-2.729
3701.000			5.457			-2.728
3800.000			5.455			-2.728
3901.000			5.454			-2.727
4002.000			5.451			-2.726
4100.000			5.449			-2.725
4200.000			5.448			-2.724
4301.000			5.445			-2.722
4400.000			5.443			-2.721
4500.000			5.441			-2.721
4600.000			5.440			-2.720
4701.000			5.437			-2.719
4802.000			5.435			-2.718
4900.000			5.435			-2.718
5000.000			5.433			-2.716
5101.000			5.431			-2.715
5200.000			5.430			-2.715
5300.000			5.429			-2.714
5402.000			5.427			-2.714
5501.000			5.426			-2.713
5600.000			5.425			-2.712
5701.000			5.421			-2.711
5800.000			5.420			-2.710
5900.000			5.420			-2.710
6001.000			5.418			-2.709
6100.000			5.417			-2.708
6201.000			5.417			-2.708
6302.000			5.415			-2.707
6400.000			5.414			-2.707
6500.000			5.412			-2.706
6601.000			5.411			-2.705
6700.000			5.411			-2.705
6800.000			5.409			-2.705
6902.000			5.408			-2.704
7001.000			5.407			-2.703
7100.000			5.405			-2.703
7201.000			5.404			-2.702
7300.000			5.402			-2.701
7400.000			5.402			-2.701
7501.000			5.401			-2.700
7600.000			5.400			-2.700
7702.000			5.399			-2.700
7801.000			5.398			-2.699
7900.000			5.397			-2.698
8001.000			5.395			-2.698
8100.000			5.394			-2.697
8200.000			5.394			-2.697
8301.000			5.393			-2.697
8400.000			5.393			-2.696
8501.000			5.392			-2.696
8602.000			5.390			-2.695
8700.000			5.388			-2.694
8800.000			5.388			-2.694
8901.000			5.388			-2.694
9000.000			5.387			-2.694
9100.000			5.386			-2.693
9202.000			5.387			-2.693
9301.000			5.385			-2.693
9401.000			5.383			-2.692
9501.000			5.384			-2.692
9600.000			5.384			-2.692
9700.000			5.383			-2.691
9801.000			5.382			-2.691
9900.000			5.381			-2.690
10001.000			5.379			-2.689
10102.000			5.378			-2.689
10200.000			5.379			-2.689
10300.000			5.378			-2.689
10401.000			5.377			-2.688
10500.000			5.377			-2.688
10600.000			5.375			-2.688
10701.000			5.375			-2.687
10801.000			5.373			-2.686
10902.000			5.373			-2.686
11000.000			5.373			-2.686
11100.000			5.372			-2.686
11201.000			5.371			-2.686
11300.000			5.369			-2.685
11400.000			5.369			-2.684
11501.000			5.369			-2.685
11601.000			5.369			-2.684
11701.000			5.367			-2.684
11801.000			5.367			-2.684
11900.000			5.367			-2.683
12000.000			5.366			-2.683
12101.000			5.366			-2.683
12200.000			5.366			-2.683
12300.000			5.363			-2.681
12402.000			5.363			-2.681
12501.000			5.363			-2.681
12600.000			5.363			-2.681
12701.000			5.361			-2.681
12800.000			5.361			-2.680
12900.000			5.361			-2.680
13001.000			5.359			-2.680
13100.000			5.359			-2.679
13201.000			5.358			-2.679
13302.000			5.358			-2.679
13400.000			5.358			-2.679
13500.000			5.358			-2.679
13601.000			5.357			-2.679
13700.000			5.356			-2.678
13800.000			5.356			-2.678
13901.000			5.355			-2.677
14001.000			5.354			-2.677
14102.000			5.354			-2.677
14200.000			5.353			-2.677
14300.000			5.354			-2.677
14401.000			5.352			-2.676
14500.000			5.352			-2.676
14600.000			5.351			-2.675
14701.000			5.352			-2.676
14801.000			5.351			-2.676
14901.000			5.350			-2.675
15001.000			5.350			-2.675
15100.000			5.349			-2.674
15200.000			5.348			-2.674
15301.000			5.347			-2.674
15400.000			5.348			-2.674
15500.000			5.347			-2.673
15602.000			5.348			-2.674
15701.000			5.347			-2.674
15800.000			5.346			-2.673
15901.000			5.346			-2.673
16000.000			5.345			-2.672
16100.000			5.345			-2.672
16201.000			5.344			-2.672
16301.000			5.344			-2.672
16401.000			5.344			-2.672
16502.000			5.343			-2.671
16600.000			5.342			-2.671
16700.000			5.341			-2.671
16801.000			5.340			-2.670
16900.000			5.340			-2.670
17000.000			5.340			-2.670
17102.000			5.339			-2.670
17201.000			5.340			-2.670
17300.000			5.339			-2.670
17400.000			5.339			-2.669
17500.000			5.338			-2.669
17601.000			5.337			-2.669
17700.000			5.337			-2.668
17800.000			5.337			-2.668
17902.000			5.337			-2.668
18001.000			5.336			-2.668
18101.000			5.336			-2.668
18201.000			5.334			-2.667
18300.000			5.334			-2.667
18400.000			5.335			-2.667
18501.000			5.335			-2.667
18600.000			5.334			-2.667
18700.000			5.333			-2.667
18802.000			5.333			-2.666
18901.000			5.332			-2.666
19000.000			5.332			-2.666
19101.000			5.332			-2.666
19200.000			5.331			-2.665
19300.000			5.331			-2.665
19401.000			5.331			-2.665
19501.000			5.330			-2.665
19601.000			5.329			-2.665
19701.000			5.329			-2.665
19800.000			5.329			-2.665
19900.000			5.329			-2.664
20001.000			5.329			-2.664
20100.000			5.328			-2.664
20200.000			5.327			-2.664
20302.000			5.327			-2.663
20401.000			5.327			-2.663
20500.000			5.326			-2.663
20600.000			5.326			-2.663
20700.000			5.326			-2.663
20801.000			5.326			-2.663
20900.000			5.326			-2.663
21000.000			5.325			-2.662
21102.000			5.324			-2.662
21201.000			5.324			-2.662
21300.000			5.323			-2.662
21401.000			5.323			-2.662
21500.000			5.324			-2.662
21600.000			5.324			-2.662
21701.000			5.321			-2.660
21801.000			5.322			-2.661
21901.000			5.323			-2.662
22001.000			5.321			-2.661
22100.000			5.320			-2.660
22200.000			5.320			-2.660
22301.000			5.321			-2.660
22400.000			5.321			-2.660
22500.000			5.320			-2.660
22602.000			5.319			-2.659
22701.000			5.319			-2.659
22800.000			5.320			-2.660
22901.000			5.319			-2.660
23000.000			5.318			-2.659
23100.000			5.318			-2.659
23201.000			5.319			-2.660
23301.000			5.318			-2.659
23401.000			5.318			-2.659
23502.000			5.317			-2.659
23600.000			5.317			-2.658
23700.000			5.316			-2.658
23800.000			5.316			-2.658
23900.000			5.317			-2.658
24001.000			5.315			-2.657
24101.000			5.315			-2.657
24201.000			5.316			-2.658
24301.000			5.316			-2.658
24400.000			5.315			-2.657
24500.000			5.315			-2.658
24601.000			5.314			-2.657
24700.000			5.313			-2.657
24800.000			5.313			-2.657
24902.000			5.314			-2.657
25001.000			5.314			-2.657
25100.000			5.314			-2.657
25201.000			5.311			-2.656
25300.000			5.312			-2.656
25400.000			5.312			-2.656
25501.000			5.312			-2.656
25600.000			5.311			-2.656
25701.000			5.311			-2.656
25802.000			5.311			-2.655
25900.000			5.311			-2.656
26000.000			5.311			-2.655
26101.000			5.310			-2.655
26200.000			5.309			-2.655
26300.000			5.309			-2.654
26401.000			5.310			-2.655
26501.000			5.309			-2.655
26601.000			5.309			-2.654
26701.000			5.309			-2.655
26800.000			5.308			-2.654
26900.000			5.308			-2.654
27000.000			5.307			-2.653
27100.000			5.306			-2.653
27202.000			5.307			-2.653
27301.000			5.307			-2.653
27401.000			5.306			-2.653
27501.000			5.306			-2.653
27600.000			5.306			-2.653
27700.000			5.305			-2.653
27801.000			5.305			-2.652
27900.000			5.305			-2.652
28001.000			5.305			-2.653
28102.000			5.305			-2.653
28200.000			5.304			-2.652
28300.000			5.305			-2.652
28401.000			5.304			-2.652
28500.000			5.305			-2.653
28600.000			5.305			-2.652
28701.000			5.303			-2.652
28801.000			5.303			-2.652
28901.000			5.303			-2.651
29001.000			5.302			-2.651
29100.000			5.302			-2.651
29200.000			5.302			-2.651
29301.000			5.302			-2.651
29400.000			5.301			-2.650
29500.000			5.301			-2.650
29602.000			5.300			-2.650
29701.000			5.301			-2.650
29800.000			5.300			-2.650
29901.000			5.300			-2.650
30000.000			5.300			-2.650
30100.000			5.300			-2.650
30200.000			5.300			-2.650
30300.000			5.300			-2.650
30402.000			5.299			-2.649
30501.000			5.299			-2.650
30600.000			5.298			-2.649
30701.000			5.298			-2.649
30800.000			5.298			-2.649
30900.000			5.298			-2.649
31001.000			5.298			-2.649
31100.000			5.297			-2.648
31201.000			5.296			-2.648
31302.000			5.297			-2.648
31400.000			5.296			-2.648
31500.000			5.296			-2.648
31601.000			5.297			-2.648
31700.000			5.296			-2.648
31800.000			5.296			-2.648
31901.000			5.296			-2.648
32001.000			5.295			-2.648
32101.000			5.295			-2.648
32201.000			5.294			-2.647
32300.000			5.294			-2.647
32400.000			5.293			-2.647
32501.000			5.292			-2.646
32600.000			5.293			-2.647
32700.000			5.293			-2.647
32802.000			5.292			-2.646
32901.000			5.293			-2.647
33000.000			5.293			-2.646
33101.000			5.292			-2.646
33200.000			5.293			-2.646
33300.000			5.294			-2.647
33400.000			5.292			-2.646
33500.000			5.292			-2.646
33602.000			5.292			-2.646
33701.000			5.292			-2.646
33800.000			5.291			-2.645
33901.000			5.290			-2.645
34000.000			5.290			-2.645
34100.000			5.290			-2.645
34201.000			5.290			-2.645
34301.000			5.290			-2.645
34401.000			5.290			-2.645
34502.000			5.290			-2.645
34600.000			5.290			-2.645
34700.000			5.289			-2.644
34801.000			5.289			-2.645
34900.000			5.289			-2.644
35000.000			5.289			-2.644
35101.000			5.289			-2.644
35201.000			5.288			-2.644
35301.000			5.288			-2.644
35401.000			5.288			-2.644
35500.000			5.288			-2.644
35600.000			5.288			-2.644
35701.000			5.288			-2.644
35800.000			5.287			-2.644
35900.000			5.287			-2.644
36002.000			5.287			-2.643
36101.000			5.287			-2.644
36200.000			5.286			-2.643
36301.000			5.286			-2.643
36400.000			5.286			-2.643
36500.000			5.285			-2.643
36600.000			5.285			-2.643
36700.000			5.286			-2.643
36802.000			5.284			-2.642
36901.000			5.284			-2.642
37000.000			5.286			-2.643
37101.000			5.286			-2.643
37200.000			5.284			-2.642
37300.000			5.284			-2.642
37401.000			5.283			-2.642
37500.000			5.284			-2.642
37601.000			5.284			-2.642
37702.000			5.284			-2.642
37800.000			5.284			-2.642
37900.000			5.283			-2.641
38001.000			5.283			-2.642
38100.000			5.283			-2.641
38200.000			5.282			-2.641
38301.000			5.283			-2.641
38401.000			5.283			-2.641
38501.000			5.282			-2.641
38601.000			5.281			-2.641
38700.000			5.281			-2.641
38800.000			5.281			-2.641
38901.000			5.282			-2.641
39000.000			5.280			-2.640
39100.000			5.280			-2.640
39202.000			5.281			-2.641
39301.000			5.280			-2.640
39400.000			5.280			-2.640
39501.000			5.281			-2.640
39600.000			5.281			-2.640
39700.000			5.280			-2.640
39800.000			5.281			-2.640
39900.000			5.279			-2.640
40002.000			5.278			-2.639
40101.000			5.279			-2.640
40200.000			5.279			-2.639
40301.000			5.279			-2.639
40400.000			5.278			-2.639
40500.000			5.278			-2.639
40601.000			5.278			-2.639
40700.000			5.279			-2.639
40801.000			5.278			-2.639
40902.000			5.277			-2.639
41000.000			5.278			-2.639
41100.000			5.278			-2.639
41201.000			5.277			-2.639
41300.000			5.278			-2.639
41400.000			5.277			-2.638
41501.000			5.277			-2.638
41601.000			5.277			-2.638
41701.000			5.277			-2.638
41801.000			5.278			-2.639
41900.000			5.277			-2.638
42000.000			5.276			-2.638
42101.000			5.276			-2.638
42200.000			5.276			-2.638
42300.000			5.274			-2.637
42402.000			5.275			-2.638
42501.000			5.276			-2.638
42600.000			5.276			-2.638
42701.000			5.275			-2.638
42800.000			5.275			-2.637
42900.000			5.274			-2.637
43000.000			5.275			-2.638
43100.000			5.276			-2.638
43202.000			5.274			-2.637
43301.000			5.274			-2.637
43400.000			5.275			-2.637
43501.000			5.273			-2.637
43600.000			5.273			-2.637
43700.000			5.274			-2.637
43801.000			5.274			-2.637
43901.000			5.273			-2.636
44001.000			5.273			-2.636
44101.000			5.274			-2.637
44200.000			5.274			-2.637
44300.000			5.272			-2.636
44401.000			5.273			-2.636
44500.000			5.273			-2.637
44600.000			5.273			-2.637
44702.000			5.273			-2.637
44801.000			5.272			-2.636
44900.000			5.272			-2.636
45001.000			5.271			-2.636
45100.000			5.271			-2.636
45200.000			5.272			-2.636
45301.000			5.271			-2.636
45400.000			5.270			-2.635
45501.000			5.271			-2.636
45602.000			5.272			-2.636
45700.000			5.270			-2.635
45800.000			5.270			-2.635
45901.000			5.271			-2.635
46000.000			5.270			-2.635
46100.000			5.271			-2.635
46200.000			5.270			-2.635
46301.000			5.270			-2.635
46402.000			5.269			-2.634
46500.000			5.268			-2.634
46600.000			5.268			-2.634
46701.000			5.269			-2.634
46800.000			5.270			-2.635
46900.000			5.269			-2.635
47001.000			5.269			-2.634
47101.000			5.268			-2.634
47201.000			5.268			-2.634
47301.000			5.267			-2.634
47400.000			5.267			-2.634
47500.000			5.267			-2.633
47601.000			5.267			-2.633
47700.000			5.268			-2.634
47800.000			5.267			-2.634
47902.000			5.268			-2.634
48001.000			5.268			-2.634
48100.000			5.268			-2.634
48201.000			5.267			-2.633
48300.000			5.267			-2.633
48400.000			5.267			-2.633
48501.000			5.267			-2.634
48600.000			5.267			-2.633
48701.000			5.266			-2.633
48802.000			5.266			-2.633
48901.000			5.266			-2.633
49000.000			5.266			-2.633
49101.000			5.266			-2.633
49200.000			5.266			-2.633
49300.000			5.266			-2.633
49400.000			5.265			-2.632
49500.000			5.265			-2.632
49602.000			5.264			-2.632
49701.000			5.265			-2.633
49800.000			5.265			-2.632
49901.000			5.264			-2.632
50000.000			5.264			-2.632
50100.000			5.265			-2.632
50201.000			5.264			-2.632
50300.000			5.264			-2.632
50401.000			5.264			-2.632
50501.000			5.265			-2.632
50600.000			5.265			-2.632
50700.000			5.264			-2.632
50801.000			5.262			-2.631
50900.000			5.263			-2.632
51000.000			5.264			-2.632
51102.000			5.263			-2.632
51201.000			5.264			-2.632
51300.000			5.264			-2.632
51401.000			5.264			-2.632
51500.000			5.263			-2.631
51600.000			5.263			-2.631
51701.000			5.262			-2.631
51800.000			5.261			-2.630
51901.000			5.261			-2.630
52002.000			5.262			-2.631
52100.000			5.261			-2.631
52200.000			5.263			-2.631
52301.000			5.262			-2.631
52400.000			5.262			-2.631
52500.000			5.262			-2.631
52600.000			5.261			-2.631
52701.000			5.260			-2.630
52802.000			5.261			-2.630
52900.000			5.261			-2.631
53000.000			5.260			-2.630
53101.000			5.260			-2.630
53200.000			5.260			-2.630
53300.000			5.260			-2.630
53402.000			5.260			-2.630
53501.000			5.260			-2.630
53600.000			5.261			-2.630
53701.000			5.259			-2.629
53800.000			5.260			-2.630
53900.000			5.260			-2.630
54001.000			5.260			-2.630
54100.000			5.260			-2.630
54201.000			5.260			-2.630
54302.000			5.258			-2.629
54400.000			5.258			-2.629
54500.000			5.258			-2.629
54601.000			5.258			-2.629
54700.000			5.258			-2.629
54800.000			5.259			-2.629
54901.000			5.259			-2.630
55001.000			5.259			-2.630
55101.000			5.258			-2.629
55201.000			5.258			-2.629
55300.000			5.257			-2.629
55400.000			5.257			-2.629
55501.000			5.257			-2.628
55600.000			5.257			-2.628
55700.000			5.257			-2.629
55802.000			5.257			-2.629
55901.000			5.257			-2.629
56001.000			5.257			-2.629
56100.000			5.257			-2.628
56200.000			5.257			-2.628
56301.000			5.256			-2.628
56400.000			5.257			-2.628
56500.000			5.257			-2.628
56602.000			5.256			-2.628
56701.000			5.256			-2.628
56800.000			5.255			-2.627
56901.000			5.255			-2.628
57000.000			5.256			-2.628
57100.000			5.256			-2.628
57201.000			5.256			-2.628
57300.000			5.255			-2.627
57401.000			5.255			-2.627
57502.000			5.255			-2.627
57600.000			5.255			-2.627
57700.000			5.254			-2.627
57801.000			5.254			-2.627
57900.000			5.253			-2.627
58000.000			5.254			-2.627
58101.000			5.254			-2.627
58201.000			5.253			-2.627
58301.000			5.253			-2.627
58401.000			5.253			-2.627
58500.000			5.254			-2.627
58600.000			5.255			-2.627
58701.000			5.254			-2.627
58800.000			5.253			-2.626
58900.000			5.253			-2.627
59002.000			5.253			-2.627
59101.000			5.253			-2.626
59201.000			5.252			-2.626
59300.000			5.253			-2.627
59400.000			5.254			-2.627
59501.000			5.253			-2.626
59600.000			5.253			-2.627
59700.000			5.253			-2.627
59802.000			5.252			-2.626
59901.000			5.252			-2.626
60000.000			5.253			-2.626
60101.000			5.253			-2.626
60200.000			5.252			-2.626
60300.000			5.252			-2.626
60401.000			5.252			-2.626
60501.000			5.251			-2.626
60601.000			5.252			-2.626
60701.000			5.252			-2.626
60800.000			5.250			-2.625
60900.000			5.251			-2.625
61001.000			5.251			-2.626
61100.000			5.251			-2.625
61200.000			5.251			-2.625
61302.000			5.251			-2.626
61401.000			5.251			-2.626
61500.000			5.251			-2.625
61601.000			5.251			-2.626
61700.000			5.250			-2.625
61800.000			5.250			-2.625
61901.000			5.251			-2.625
62000.000			5.251			-2.625
62102.000			5.250			-2.625
62201.000			5.250			-2.625
62300.000			5.249			-2.625
62401.000			5.250			-2.625
62500.000			5.250			-2.625
62600.000			5.249			-2.625
62701.000			5.249			-2.625
62801.000			5.249			-2.625
62901.000			5.249			-2.625
63002.000			5.249			-2.625
63100.000			5.248			-2.624
63200.000			5.248			-2.624
63301.000			5.248			-2.624
63400.000			5.248			-2.624
63500.000			5.247			-2.624
63602.000			5.248			-2.624
63701.000			5.249			-2.624
63801.000			5.248			-2.624
63901.000			5.249			-2.624
64000.000			5.248			-2.624
64100.000			5.248			-2.624
64201.000			5.247			-2.624
64300.000			5.248			-2.624
64401.000			5.247			-2.624
64502.000			5.247			-2.624
64600.000			5.248			-2.624
64700.000			5.248			-2.624
64801.000			5.248			-2.624
64900.000			5.247			-2.624
65000.000			5.248			-2.624
65101.000			5.247			-2.624
65201.000			5.246			-2.623
65302.000			5.248			-2.624
65401.000			5.247			-2.623
65500.000			5.246			-2.623
65601.000			5.246			-2.623
65700.000			5.246			-2.623
65800.000			5.246			-2.623
65901.000			5.246			-2.623
66001.000			5.247			-2.623
66101.000			5.246			-2.623
66202.000			5.244			-2.622
66300.000			5.245			-2.623
66400.000			5.246			-2.623
66501.000			5.245			-2.622
66600.000			5.245			-2.623
66700.000			5.245			-2.623
66801.000			5.245			-2.622
66901.000			5.245			-2.623
67001.000			5.245			-2.622
67101.000			5.245			-2.622
67200.000			5.245			-2.622
67300.000			5.245			-2.622
67401.000			5.245			-2.623
67500.000			5.244			-2.622
67600.000			5.245			-2.622
67702.000			5.246			-2.623
67801.000			5.246			-2.623
67900.000			5.244			-2.622
68001.000			5.243			-2.622
68100.000			5.244			-2.622
68200.000			5.243			-2.622
68301.000			5.243			-2.621
68400.000			5.243			-2.621
68502.000			5.243			-2.622
68601.000			5.243			-2.622
68700.000			5.244			-2.622
68801.000			5.244			-2.622
68900.000			5.242			-2.621
69000.000			5.242			-2.621
69101.000			5.243			-2.621
69200.000			5.243			-2.621
69301.000			5.243			-2.621
69402.000			5.242			-2.621
69500.000			5.242			-2.621
69600.000			5.242			-2.621
69701.000			5.242			-2.621
69800.000			5.242			-2.621
69900.000			5.242			-2.621
70001.000			5.241			-2.621
70101.000			5.241			-2.621
70201.000			5.241			-2.621
70301.000			5.242			-2.621
70400.000			5.243			-2.621
70500.000			5.242			-2.621
70601.000			5.241			-2.620
70700.000			5.240			-2.620
70800.000			5.240			-2.620
70902.000			5.241			-2.620
71001.000			5.241			-2.620
71100.000			5.241			-2.620
71201.000			5.240			-2.620
71300.000			5.239			-2.620
71400.000			5.239			-2.620
71501.000			5.240			-2.620
71601.000			5.241			-2.620
71702.000			5.240			-2.620
71801.000			5.240			-2.620
71900.000			5.240			-2.620
72001.000			5.239			-2.620
72100.000			5.240			-2.620
72200.000			5.240			-2.620
72301.000			5.238			-2.619
72400.000			5.239			-2.619
72501.000			5.239			-2.619
72602.000			5.238			-2.619
72700.000			5.239			-2.619
72800.000			5.239			-2.620
72901.000			5.239			-2.619
73000.000			5.239			-2.620
73100.000			5.239			-2.620
73201.000			5.240			-2.620
73301.000			5.239			-2.619
73401.000			5.239			-2.619
73501.000			5.239			-2.619
73600.000			5.239			-2.619
73700.000			5.239			-2.619
73801.000			5.238			-2.619
73900.000			5.237			-2.619
74000.000			5.238			-2.619
74101.000			5.239			-2.620
74201.000			5.238			-2.619
74301.000			5.238			-2.619
74401.000			5.237			-2.619
74500.000			5.237			-2.618
74600.000			5.237			-2.619
74701.000			5.237			-2.618
74800.000			5.237			-2.618
74900.000			5.236			-2.618
75002.000			5.236			-2.618
75101.000			5.236			-2.618
75201.000			5.237			-2.619
75300.000			5.238			-2.619
75400.000			5.238			-2.619
75501.000			5.237			-2.618
75600.000			5.236			-2.618
75700.000			5.236			-2.618
75802.000			5.236			-2.618
75901.000			5.237			-2.618
76000.000			5.237			-2.618
76101.000			5.236			-2.618
76200.000			5.236			-2.618
76300.000			5.236			-2.618
76401.000			5.236			-2.618
76500.000			5.236			-2.618
76601.000			5.237			-2.618
76702.000			5.236			-2.618
76800.000			5.236			-2.618
76900.000			5.235			-2.617
77001.000			5.236			-2.618
77100.000			5.235			-2.618
77200.000			5.235			-2.617
77301.000			5.235			-2.618
77401.000			5.235			-2.617
77501.000			5.234			-2.617
77601.000			5.235			-2.617
77700.000			5.234			-2.617
77800.000			5.235			-2.618
77901.000			5.235			-2.617
78000.000			5.234			-2.617
78100.000			5.234			-2.617
78202.000			5.233			-2.617
78301.000			5.234			-2.617
78401.000			5.235			-2.618
78500.000			5.235			-2.617
78600.000			5.234			-2.617
78701.000			5.234			-2.617
78800.000			5.234			-2.617
78900.000			5.234			-2.617
79002.000			5.233			-2.617
79101.000			5.234			-2.617
79200.000			5.234			-2.617
79301.000			5.234			-2.617
79400.000			5.234			-2.617
79500.000			5.234			-2.617
79601.000			5.234			-2.617
79700.000			5.234			-2.617
79801.000			5.233			-2.617
79902.000			5.234			-2.617
80000.000			5.232			-2.616
80100.000			5.231			-2.616
80201.000			5.233			-2.616
80300.000			5.233			-2.616
80400.000			5.233			-2.616
80501.000			5.233			-2.617
80601.000			5.233			-2.617
80701.000			5.233			-2.616
80801.000			5.233			-2.616
80900.000			5.232			-2.616
81000.000			5.233			-2.616
81101.000			5.232			-2.616
81200.000			5.232			-2.616
81300.000			5.232			-2.616
81402.000			5.233			-2.616
81501.000			5.232			-2.616
81601.000			5.232			-2.616
81700.000			5.231			-2.616
81800.000			5.231			-2.615
81901.000			5.231			-2.615
82000.000			5.231			-2.615
82100.000			5.231			-2.615
82202.000			5.231			-2.615
82301.000			5.231			-2.615
82400.000			5.230			-2.615
82501.000			5.230			-2.615
82600.000			5.230			-2.615
82700.000			5.231			-2.615
82801.000			5.230			-2.615
82901.000			5.230			-2.615
83001.000			5.230			-2.615
83102.000			5.230			-2.615
83200.000			5.231			-2.615
83300.000			5.231			-2.615
83401.000			5.230			-2.615
83500.000			5.229			-2.615
83600.000			5.229			-2.615
83701.000			5.230			-2.615
83801.000			5.230			-2.615
83901.000			5.230			-2.615
84001.000			5.230			-2.615
84100.000			5.230			-2.615
84200.000			5.230			-2.615
84301.000			5.229			-2.615
84400.000			5.230			-2.615
84500.000			5.230			-2.615
84602.000			5.230			-2.615
84701.000			5.230			-2.615
84801.000			5.230			-2.615
84900.000			5.229			-2.615
85000.000			5.230			-2.615
85101.000			5.230			-2.615
85200.000			5.230			-2.615
85300.000			5.228			-2.614
85402.000			5.228			-2.614
85501.000			5.228			-2.614
85600.000			5.228			-2.614
85701.000			5.229			-2.614
85800.000			5.228			-2.614
85900.000			5.229			-2.614
86001.000			5.229			-2.614
86100.000			5.228			-2.614
86201.000			5.228			-2.614
86302.000			5.226			-2.613
86400.000			5.227			-2.613
86500.000			5.226			-2.613
86601.000			5.227			-2.613
86700.000			5.228			-2.614
86800.000			5.227			-2.613
86901.000			5.227			-2.613
87001.000			5.227			-2.613
87101.000			5.227			-2.614
87201.000			5.228			-2.614
87300.000			5.228			-2.614
87400.000			5.229			-2.614
87501.000			5.228			-2.614
87600.000			5.228			-2.614
87700.000			5.228			-2.614
87802.000			5.226			-2.613
87901.000			5.225			-2.613
88001.000			5.225			-2.613
88100.000			5.225			-2.613
88200.000			5.226			-2.613
88301.000			5.226			-2.613
88400.000			5.226			-2.613
88500.000			5.226			-2.613
88602.000			5.226			-2.613
88701.000			5.226			-2.613
88800.000			5.226			-2.613
88901.000			5.226			-2.613
89000.000			5.226			-2.613
89100.000			5.226			-2.613
89201.000			5.226			-2.613
89300.000			5.226			-2.613
89401.000			5.226			-2.613
89502.000			5.225			-2.613
89601.000			5.225			-2.612
89700.000			5.224			-2.612
89801.000			5.224			-2.612
89900.000			5.225			-2.613
90000.000			5.225			-2.612
90101.000			5.225			-2.612
90201.000			5.225			-2.612
90301.000			5.225			-2.613
90402.000			5.226			-2.613
90500.000			5.225			-2.613
90600.000			5.225			-2.612
90701.000			5.225			-2.612
90800.000			5.224			-2.612
90900.000			5.224			-2.612
91002.000			5.224			-2.612
91101.000			5.224			-2.612
91201.000			5.225			-2.612
91300.000			5.225			-2.613
91400.000			5.223			-2.612
91501.000			5.225			-2.612
91600.000			5.225			-2.612
91700.000			5.224			-2.612
91802.000			5.223			-2.612
91901.000			5.223			-2.612
92000.000			5.224			-2.612
92101.000			5.224			-2.612
92200.000			5.224			-2.612
92300.000			5.224			-2.612
92401.000			5.224			-2.612
92500.000			5.224			-2.612
92601.000			5.224			-2.612
92702.000			5.224			-2.612
92800.000			5.223			-2.611
92900.000			5.223			-2.612
93001.000			5.223			-2.612
93100.000			5.224			-2.612
93200.000			5.224			-2.612
93301.000			5.224			-2.612
93401.000			5.224			-2.612
93501.000			5.224			-2.612
93601.000			5.223			-2.612
93700.000			5.222			-2.611
93800.000			5.223			-2.611
93901.000			5.223			-2.611
94000.000			5.223			-2.611
94100.000			5.222			-2.611
94202.000			5.222			-2.611
94301.000			5.222			-2.611
94401.000			5.222			-2.611
94500.000			5.223			-2.611
94600.000			5.222			-2.611
94701.000			5.222			-2.611
94800.000			5.223			-2.611
94900.000			5.222			-2.611
95002.000			5.223			-2.611
95101.000			5.222			-2.611
95200.000			5.222			-2.611
95301.000			5.221			-2.611
95400.000			5.221			-2.611
95500.000			5.221			-2.611
95601.000			5.221			-2.610
95700.000			5.222			-2.611
95801.000			5.222			-2.611
95902.000			5.222			-2.611
96000.000			5.221			-2.610
96100.000			5.220			-2.610
96201.000			5.221			-2.610
96300.000			5.221			-2.611
96400.000			5.221			-2.611
96501.000			5.221			-2.610
96601.000			5.221			-2.610
96701.000			5.221			-2.611
96801.000			5.221			-2.611
96900.000			5.220			-2.610
97000.000			5.220			-2.610
97101.000			5.220			-2.610
97200.000			5.220			-2.610
97300.000			5.221			-2.610
97402.000			5.221			-2.610
97501.000			5.220			-2.610
97601.000			5.220			-2.610
97700.000			5.219			-2.610
97800.000			5.220			-2.610
97901.000			5.220			-2.610
98000.000			5.221			-2.610
98100.000			5.220			-2.610
98202.000			5.219			-2.610
98301.000			5.220			-2.610
98400.000			5.220			-2.610
98501.000			5.219			-2.610
98600.000			5.219			-2.610
98700.000			5.219			-2.610
98801.000			5.220			-2.610
98900.000			5.220			-2.610
99000.000			5.221			-2.611
99102.000			5.221			-2.611
99201.000			5.219			-2.609
99300.000			5.218			-2.609
99401.000			5.219			-2.610
99500.000			5.220			-2.610
99600.000			5.219			-2.610
99701.000			5.219			-2.609
99800.000			5.219			-2.609
99901.000			5.219			-2.610
100002.000			5.219			-2.610
100100.000			5.217			-2.609
100200.000			5.218			-2.609
100301.000			5.217			-2.609
100400.000			5.218			-2.609
100500.000			5.217			-2.609
100602.000			5.218			-2.609
100701.000			5.218			-2.609
100802.000			5.217			-2.608
100900.000			5.216			-2.608
101000.000			5.217			-2.608
101101.000			5.217			-2.608
101200.000			5.217			-2.608
101300.000			5.217			-2.609
101401.000			5.218			-2.609
101501.000			5.218			-2.609
101601.000			5.217			-2.609
101701.000			5.218			-2.609
101800.000			5.219			-2.610
101900.000			5.217			-2.609
102001.000			5.216			-2.608
102100.000			5.216			-2.608
102200.000			5.217			-2.608
102302.000			5.217			-2.608
102401.000			5.217			-2.608
102500.000			5.215			-2.608
102601.000			5.216			-2.608
102700.000			5.216			-2.608
102800.000			5.215			-2.608
102901.000			5.216			-2.608
103000.000			5.216			-2.608
103101.000			5.216			-2.608
103202.000			5.217			-2.608
103300.000			5.217			-2.608
103400.000			5.216			-2.608
103501.000			5.216			-2.608
103600.000			5.216			-2.608
103700.000			5.216			-2.608
103800.000			5.217			-2.608
103901.000			5.217			-2.608
104002.000			5.217			-2.609
104100.000			5.217			-2.609
104200.000			5.216			-2.608
104301.000			5.215			-2.608
104400.000			5.215			-2.608
104500.000			5.215			-2.608
104601.000			5.216			-2.608
104701.000			5.216			-2.608
104801.000			5.214			-2.607
104901.000			5.214			-2.607
105000.000			5.215			-2.608
105100.000			5.215			-2.608
105201.000			5.215			-2.607
105300.000			5.214			-2.607
105400.000			5.214			-2.607
105502.000			5.215			-2.607
105601.000			5.216			-2.608
105700.000			5.215			-2.607
105801.000			5.215			-2.607
105900.000			5.214			-2.607
106000.000			5.215			-2.607
106101.000			5.214			-2.607
106200.000			5.215			-2.607
106301.000			5.215			-2.607
106402.000			5.214			-2.607
106500.000			5.214			-2.607
106600.000			5.215			-2.607
106701.000			5.214			-2.607
106800.000			5.213			-2.607
106900.000			5.213			-2.607
107000.000			5.213			-2.607
107101.000			5.213			-2.607
107202.000			5.213			-2.607
107301.000			5.213			-2.607
107400.000			5.213			-2.607
107501.000			5.213			-2.606
107600.000			5.212			-2.606
107700.000			5.213			-2.606
107801.000			5.213			-2.606
107901.000			5.213			-2.607
108001.000			5.214			-2.607
108101.000			5.213			-2.606
108200.000			5.212			-2.606
108300.000			5.212			-2.606
108401.000			5.212			-2.606
108500.000			5.213			-2.607
108600.000			5.213			-2.607
108701.000			5.213			-2.606
108801.000			5.211			-2.606
108901.000			5.212			-2.606
109001.000			5.213			-2.606
109100.000			5.213			-2.606
109200.000			5.213			-2.607
109301.000			5.213			-2.607
109400.000			5.212			-2.606
109500.000			5.212			-2.606
109602.000			5.211			-2.606
109701.000			5.212			-2.606
109800.000			5.213			-2.606
109901.000			5.213			-2.606
110000.000			5.213			-2.606
110100.000			5.213			-2.606
110200.000			5.212			-2.606
110300.000			5.211			-2.606
110402.000			5.212			-2.606
110501.000			5.212			-2.606
110600.000			5.212			-2.606
110701.000			5.212			-2.606
110800.000			5.211			-2.606
110900.000			5.212			-2.606
111001.000			5.212			-2.606
111100.000			5.212			-2.606
111201.000			5.211			-2.606
111302.000			5.212			-2.606
111400.000			5.211			-2.605
111500.000			5.211			-2.605
111601.000			5.210			-2.605
111700.000			5.211			-2.605
111800.000			5.210			-2.605
111901.000			5.210			-2.605
112001.000			5.210			-2.605
112101.000			5.211			-2.606
112201.000			5.211			-2.605
112300.000			5.210			-2.605
112400.000			5.210			-2.605
112501.000			5.211			-2.605
112600.000			5.211			-2.605
112700.000			5.211			-2.605
112802.000			5.210			-2.605
112901.000			5.209			-2.605
113000.000			5.210			-2.605
113101.000			5.211			-2.605
113200.000			5.209			-2.605
113300.000			5.209			-2.605
113400.000			5.209			-2.604
113500.000			5.209			-2.604
113602.000			5.209			-2.604
113701.000			5.209			-2.605
113800.000			5.210			-2.605
113901.000			5.209			-2.605
114000.000			5.210			-2.605
114100.000			5.209			-2.605
114201.000			5.209			-2.604
114300.000			5.209			-2.604
114401.000			5.209			-2.605
114502.000			5.208			-2.604
114600.000			5.208			-2.604
114700.000			5.209			-2.604
114801.000			5.208			-2.604
114900.000			5.208			-2.604
115000.000			5.210			-2.605
115101.000			5.210			-2.605
115201.000			5.208			-2.604
115301.000			5.209			-2.605
115401.000			5.209			-2.604
115500.000			5.209			-2.604
115600.000			5.210			-2.605
115701.000			5.209			-2.605
115800.000			5.209			-2.605
115900.000			5.209			-2.605
116001.000			5.209			-2.604
116101.000			5.208			-2.604
116201.000			5.208			-2.604
116301.000			5.208			-2.604
116400.000			5.208			-2.604
116500.000			5.209			-2.605
116600.000			5.208			-2.604
116700.000			5.208			-2.604
116801.000			5.207			-2.603
116901.000			5.207			-2.604
117001.000			5.207			-2.603
117101.000			5.207			-2.603
117200.000			5.208			-2.604
117300.000			5.208			-2.604
117401.000			5.209			-2.604
117500.000			5.208			-2.604
117600.000			5.209			-2.604
117702.000			5.208			-2.604
117801.000			5.207			-2.604
117900.000			5.207			-2.604
118001.000			5.208			-2.604
118100.000			5.207			-2.604
118200.000			5.208			-2.604
118301.000			5.207			-2.604
118400.000			5.206			-2.603
118501.000			5.206			-2.603
118602.000			5.207			-2.603
118701.000			5.207			-2.603
118800.000			5.207			-2.604
118901.000			5.208			-2.604
119000.000			5.207			-2.604
119100.000			5.207			-2.604
119201.000			5.207			-2.604
119300.000			5.207			-2.604
119401.000			5.208			-2.604
119502.000			5.207			-2.603
119600.000			5.206			-2.603
119700.000			5.206			-2.603
119800.000			5.206			-2.603
119900.000			5.206			-2.603
120001.000			5.206			-2.603
120100.000			5.206			-2.603
120201.000			5.206			-2.603
120302.000			5.206			-2.603
120400.000			5.207			-2.604
120500.000			5.206			-2.603
120601.000			5.205			-2.602
120700.000			5.206			-2.603
120800.000			5.206			-2.603
120901.000			5.206			-2.603
121001.000			5.206			-2.603
121101.000			5.206			-2.603
121201.000			5.205			-2.603
121300.000			5.205			-2.603
121400.000			5.205			-2.602
121501.000			5.206			-2.603
121600.000			5.205			-2.603
121700.000			5.206			-2.603
121802.000			5.206			-2.603
121901.000			5.205			-2.602
122000.000			5.205			-2.602
122101.000			5.205			-2.602
122200.000			5.205			-2.603
122300.000			5.205			-2.603
122401.000			5.204			-2.602
122501.000			5.204			-2.602
122601.000			5.204			-2.602
122702.000			5.204			-2.602
122800.000			5.205			-2.603
122900.000			5.205			-2.603
123000.000			5.206			-2.603
123100.000			5.206			-2.603
123201.000			5.205			-2.602
123301.000			5.204			-2.602
123401.000			5.204			-2.602
123502.000			5.204			-2.602
123600.000			5.205			-2.602
123700.000			5.206			-2.603
123801.000			5.206			-2.603
123900.000			5.205			-2.603
124000.000			5.205			-2.602
124101.000			5.202			-2.601
124201.000			5.203			-2.602
124301.000			5.204			-2.602
124401.000			5.204			-2.602
124500.000			5.204			-2.602
124600.000			5.204			-2.602
124701.000			5.204			-2.602
124800.000			5.204			-2.602
124900.000			5.205			-2.602
125002.000			5.205			-2.602
125101.000			5.204			-2.602
125200.000			5.203			-2.601
125301.000			5.203			-2.602
125400.000			5.204			-2.602
125500.000			5.204			-2.602
125601.000			5.204			-2.602
125700.000			5.203			-2.602
125801.000			5.202			-2.601
125902.000			5.202			-2.601
126000.000			5.203			-2.601
126100.000			5.204			-2.602
126200.000			5.203			-2.601
126300.000			5.203			-2.601
126401.000			5.203			-2.601
126500.000			5.202			-2.601
126601.000			5.202			-2.601
126702.000			5.202			-2.601
126800.000			5.203			-2.602
126900.000			5.202			-2.601
127001.000			5.202			-2.601
127100.000			5.201			-2.601
127200.000			5.201			-2.601
127301.000			5.200			-2.600
127401.000			5.201			-2.601
127501.000			5.202			-2.601
127601.000			5.202			-2.601
127700.000			5.202			-2.601
127800.000			5.202			-2.601
127901.000			5.202			-2.601
128000.000			5.203			-2.601
128100.000			5.203			-2.601
128202.000			5.202			-2.601
128301.000			5.202			-2.601
128400.000			5.201			-2.600
128501.000			5.201			-2.601
128600.000			5.202			-2.601
128700.000			5.202			-2.601
128801.000			5.201			-2.601
128900.000			5.202			-2.601
129001.000			5.202			-2.601
129102.000			5.202			-2.601
129200.000			5.201			-2.601
129300.000			5.201			-2.600
129400.000			5.201			-2.601
129500.000			5.201			-2.601
129601.000			5.201			-2.600
129700.000			5.201			-2.600
129800.000			5.200			-2.600
129902.000			5.202			-2.601
130001.000			5.201			-2.601
130100.000			5.201			-2.600
130201.000			5.201			-2.601
130300.000			5.200			-2.600
130400.000			5.200			-2.600
130501.000			5.201			-2.600
130601.000			5.201			-2.601
130701.000			5.200			-2.600
130802.000			5.200			-2.600
130900.000			5.200			-2.600
131000.000			5.200			-2.600
131101.000			5.201			-2.600
131200.000			5.200			-2.600
131300.000			5.199			-2.600
131401.000			5.200			-2.600
131501.000			5.200			-2.600
131601.000			5.201			-2.600
131701.000			5.200			-2.600
131800.000			5.201			-2.601
131900.000			5.201			-2.601
132001.000			5.201			-2.600
132100.000			5.200			-2.600
132200.000			5.200			-2.600
132301.000			5.200			-2.600
132401.000			5.200			-2.600
132502.000			5.200			-2.600
132600.000			5.200			-2.600
132700.000			5.199			-2.600
132801.000			5.200			-2.600
132900.000			5.200			-2.600
133000.000			5.200			-2.600
133101.000			5.200			-2.600
133200.000			5.199			-2.599
133301.000			5.199			-2.599
133402.000			5.199			-2.600
133500.000			5.199			-2.600
133600.000			5.199			-2.600
133701.000			5.199			-2.599
133800.000			5.199			-2.599
133900.000			5.200			-2.600
134001.000			5.200			-2.600
134100.000			5.199			-2.600
134201.000			5.199			-2.600
134302.000			5.199			-2.599
134401.000			5.199			-2.599
134500.000			5.199			-2.600
134601.000			5.199			-2.599
134700.000			5.197			-2.599
134800.000			5.198			-2.599
134901.000			5.199			-2.600
135000.000			5.198			-2.599
135100.000			5.199			-2.599
135202.000			5.199			-2.600
135301.000			5.199			-2.600
135400.000			5.199			-2.600
135501.000			5.199			-2.600
135600.000			5.199			-2.599
135700.000			5.199			-2.600
135800.000			5.198			-2.599
135900.000			5.199			-2.599
136001.000			5.199			-2.600
136101.000			5.198			-2.599
136201.000			5.198			-2.599
136301.000			5.198			-2.599
136400.000			5.198			-2.599
136500.000			5.198			-2.599
136601.000			5.198			-2.599
136700.000			5.198			-2.599
136800.000			5.197			-2.598
136901.000			5.197			-2.598
137000.000			5.198			-2.599
137101.000			5.198			-2.599
137202.000			5.198			-2.599
137300.000			5.197			-2.599
137400.000			5.197			-2.599
137501.000			5.198			-2.599
137600.000			5.199			-2.599
137700.000			5.199			-2.599
137801.000			5.197			-2.599
137900.000			5.198			-2.599
138001.000			5.197			-2.598
138102.000			5.197			-2.598
138201.000			5.197			-2.599
138300.000			5.197			-2.599
138401.000			5.197			-2.599
138500.000			5.195			-2.598
138600.000			5.196			-2.598
138701.000			5.197			-2.598
138800.000			5.198			-2.599
138900.000			5.197			-2.598
139002.000			5.196			-2.598
139101.000			5.197			-2.598
139201.000			5.197			-2.598
139300.000			5.196			-2.598
139400.000			5.195			-2.598
139501.000			5.196			-2.598
139600.000			5.197			-2.598
139700.000			5.197			-2.599
139801.000			5.197			-2.598
139901.000			5.197			-2.598
140001.000			5.195			-2.598
140102.000			5.196			-2.598
140200.000			5.196			-2.598
140300.000			5.197			-2.598
140401.000			5.197			-2.599
140500.000			5.197			-2.599
140600.000			5.196			-2.598
140701.000			5.195			-2.598
140801.000			5.195			-2.598
140901.000			5.194			-2.597
141002.000			5.194			-2.597
141100.000			5.195			-2.598
141200.000			5.195			-2.598
141301.000			5.196			-2.598
141400.000			5.197			-2.598
141500.000			5.195			-2.598
141601.000			5.195			-2.598
141701.000			5.195			-2.598
141801.000			5.195			-2.598
141902.000			5.195			-2.597
142000.000			5.195			-2.597
142100.000			5.196			-2.598
142200.000			5.195			-2.598
142300.000			5.196			-2.598
142401.000			5.196			-2.598
142500.000			5.195			-2.598
142600.000			5.194			-2.597
142702.000			5.194			-2.597
142801.000			5.195			-2.597
142900.000			5.196			-2.598
143001.000			5.195			-2.597
143100.000			5.195			-2.598
143200.000			5.196			-2.598
143301.000			5.195			-2.598
143400.000			5.195			-2.598
143500.000			5.195			-2.597
143602.000			5.194			-2.597
143701.000			5.195			-2.597
143801.000			5.195			-2.597
143901.000			5.195			-2.598
144000.000			5.195			-2.598
144100.000			5.195			-2.597
144201.000			5.195			-2.597
144300.000			5.194			-2.597
144400.000			5.195			-2.598
144502.000			5.195			-2.597
144601.000			5.194			-2.597
144701.000			5.194			-2.597
144801.000			5.194			-2.597
144900.000			5.194			-2.597
145000.000			5.195			-2.598
145101.000			5.194			-2.597
145200.000			5.194			-2.597
145300.000			5.194			-2.597
145402.000			5.194			-2.597
145501.000			5.194			-2.597
145602.000			5.194			-2.597
145700.000			5.194			-2.597
145800.000			5.194			-2.597
145901.000			5.194			-2.597
146000.000			5.194			-2.597
146100.000			5.195			-2.597
146201.000			5.193			-2.597
146300.000			5.193			-2.596
146401.000			5.194			-2.597
146502.000			5.193			-2.596
146600.000			5.193			-2.596
146700.000			5.193			-2.596
146801.000			5.194			-2.597
146900.000			5.194			-2.597
147000.000			5.194			-2.597
147101.000			5.192			-2.596
147200.000			5.192			-2.596
147301.000			5.194			-2.597
147402.000			5.194			-2.597
147501.000			5.193			-2.597
147600.000			5.194			-2.597
147701.000			5.194			-2.597
147800.000			5.194			-2.597
147900.000			5.193			-2.597
148001.000			5.193			-2.596
148100.000			5.193			-2.597
148200.000			5.193			-2.596
148302.000			5.192			-2.596
148401.000			5.192			-2.596
148500.000			5.192			-2.596
148600.000			5.192			-2.596
148700.000			5.192			-2.596
148801.000			5.192			-2.596
148900.000			5.193			-2.596
149000.000			5.193			-2.596
149101.000			5.192			-2.596
149201.000			5.192			-2.596
149301.000			5.191			-2.596
149401.000			5.192			-2.596
149500.000			5.192			-2.596
149600.000			5.191			-2.596
149701.000			5.191			-2.596
149800.000			5.192			-2.596
149900.000			5.192			-2.596
150001.000			5.192			-2.596
150101.000			5.192			-2.596
150201.000			5.191			-2.596
150301.000			5.191			-2.596
150400.000			5.191			-2.596
150500.000			5.191			-2.596
150601.000			5.192			-2.596
150700.000			5.192			-2.596
150800.000			5.192			-2.596
150901.000			5.192			-2.596
151001.000			5.191			-2.595
151101.000			5.191			-2.595
151201.000			5.191			-2.595
151300.000			5.190			-2.595
151400.000			5.191			-2.596
151501.000			5.192			-2.596
151600.000			5.190			-2.595
151700.000			5.191			-2.595
151800.000			5.191			-2.596
151901.000			5.191			-2.595
152002.000			5.191			-2.595
152101.000			5.192			-2.596
152200.000			5.192			-2.596
152301.000			5.192			-2.596
152400.000			5.191			-2.596
152500.000			5.191			-2.595
152601.000			5.192			-2.596
152700.000			5.192			-2.596
152801.000			5.192			-2.596
152902.000			5.191			-2.596
153001.000			5.190			-2.595
153100.000			5.190			-2.595
153201.000			5.190			-2.595
153300.000			5.191			-2.595
153400.000			5.191			-2.595
153501.000			5.190			-2.595
153600.000			5.189			-2.595
153700.000			5.189			-2.595
153802.000			5.189			-2.595
153901.000			5.190			-2.595
154000.000			5.189			-2.595
154101.000			5.190			-2.595
154200.000			5.190			-2.595
154300.000			5.190			-2.595
154401.000			5.190			-2.595
154500.000			5.190			-2.595
154600.000			5.190			-2.595
154702.000			5.189			-2.594
154801.000			5.190			-2.595
154900.000			5.190			-2.595
155000.000			5.191			-2.595
155100.000			5.189			-2.594
155201.000			5.190			-2.595
155300.000			5.190			-2.595
155400.000			5.190			-2.595
155501.000			5.189			-2.594
155601.000			5.188			-2.594
155701.000			5.189			-2.594
155802.000			5.189			-2.595
155900.000			5.189			-2.594
156000.000			5.190			-2.595
156101.000			5.190			-2.595
156200.000			5.190			-2.595
156300.000			5.189			-2.594
156401.000			5.188			-2.594
156500.000			5.189			-2.594
156601.000			5.189			-2.594
156702.000			5.189			-2.594
156801.000			5.189			-2.595
156900.000			5.189			-2.594
157001.000			5.190			-2.595
157100.000			5.189			-2.594
157200.000			5.189			-2.594
157301.000			5.190			-2.595
157400.000			5.190			-2.595
157500.000			5.189			-2.595
157602.000			5.190			-2.595
157701.000			5.190			-2.595
157800.000			5.190			-2.595
157901.000			5.189			-2.594
158000.000			5.189			-2.594
158100.000			5.188			-2.594
158200.000			5.189			-2.595
158300.000			5.189			-2.594
158401.000			5.188			-2.594
158501.000			5.188			-2.594
158601.000			5.188			-2.594
158702.000			5.190			-2.595
158800.000			5.189			-2.595
158900.000			5.189			-2.595
159001.000			5.189			-2.595
159100.000			5.189			-2.595
159200.000			5.188			-2.594
159301.000			5.187			-2.594
159400.000			5.187			-2.593
159501.000			5.188			-2.594
159602.000			5.189			-2.594
159700.000			5.188			-2.594
159800.000			5.188			-2.594
159901.000			5.189			-2.594
160000.000			5.188			-2.594
160100.000			5.188			-2.594
160201.000			5.189			-2.595
160300.000			5.188			-2.594
160401.000			5.188			-2.594
160502.000			5.188			-2.594
160601.000			5.187			-2.594
160700.000			5.188			-2.594
160801.000			5.189			-2.594
160900.000			5.188			-2.594
161000.000			5.187			-2.594
161101.000			5.188			-2.594
161200.000			5.187			-2.593
161300.000			5.187			-2.593
161402.000			5.187			-2.594
161501.000			5.187			-2.594
161601.000			5.187			-2.594
161700.000			5.187			-2.594
161800.000			5.188			-2.594
161901.000			5.189			-2.594
162000.000			5.188			-2.594
162100.000			5.187			-2.593
162201.000			5.186			-2.593
162301.000			5.187			-2.593
162401.000			5.187			-2.594
162502.000			5.188			-2.594
162600.000			5.186			-2.593
162700.000			5.186			-2.593
162801.000			5.187			-2.594
162900.000			5.187			-2.593
163000.000			5.186			-2.593
163101.000			5.186			-2.593
163201.000			5.187			-2.593
163301.000			5.186			-2.593
163402.000			5.186			-2.593
163500.000			5.187			-2.593
163600.000			5.186			-2.593
163701.000			5.185			-2.593
163800.000			5.186			-2.593
163900.000			5.186			-2.593
164001.000			5.186			-2.593
164100.000			5.186			-2.593
164201.000			5.186			-2.593
164302.000			5.186			-2.593
164400.000			5.186			-2.593
164500.000			5.186			-2.593
164600.000			5.186			-2.593
164700.000			5.185			-2.592
164801.000			5.185			-2.592
164900.000			5.186			-2.593
165000.000			5.186			-2.593
165102.000			5.185			-2.593
165201.000			5.185			-2.592
165301.000			5.185			-2.592
165401.000			5.186			-2.593
165500.000			5.186			-2.593
165600.000			5.186			-2.593
165701.000			5.185			-2.592
165800.000			5.185			-2.593
165900.000			5.184			-2.592
166002.000			5.184			-2.592
166101.000			5.185			-2.592
166201.000			5.184			-2.592
166301.000			5.184			-2.592
166400.000			5.184			-2.592
166500.000			5.185			-2.593
166601.000			5.186			-2.593
166700.000			5.185			-2.593
166800.000			5.185			-2.593
166901.000			5.185			-2.593
167001.000			5.186			-2.593
167101.000			5.184			-2.592
167201.000			5.184			-2.592
167300.000			5.185			-2.593
167400.000			5.185			-2.593
167501.000			5.185			-2.592
167600.000			5.185			-2.593
167700.000			5.185			-2.593
167800.000			5.184			-2.592
167901.000			5.184			-2.592
168002.000			5.184			-2.592
168101.000			5.184			-2.592
168200.000			5.185			-2.592
168301.000			5.185			-2.592
168400.000			5.185			-2.592
168500.000			5.185			-2.593
168601.000			5.184			-2.592
168700.000			5.183			-2.592
168800.000			5.183			-2.592
168902.000			5.184			-2.592
169001.000			5.183			-2.592
169100.000			5.183			-2.591
169201.000			5.182			-2.591
169300.000			5.182			-2.591
169400.000			5.183			-2.592
169501.000			5.183			-2.591
169600.000			5.184			-2.592
169700.000			5.182			-2.591
169802.000			5.183			-2.591
169901.000			5.184			-2.592
170001.000			5.184			-2.592
170101.000			5.183			-2.591
170200.000			5.182			-2.591
170300.000			5.183			-2.591
170401.000			5.183			-2.592
170500.000			5.183			-2.591
170600.000			5.183			-2.591
170702.000			5.183			-2.591
170801.000			5.184			-2.592
170902.000			5.184			-2.592
171000.000			5.182			-2.591
171100.000			5.182			-2.591
171201.000			5.182			-2.591
171300.000			5.183			-2.591
171400.000			5.182			-2.591
171501.000			5.182			-2.591
171600.000			5.183			-2.592
171701.000			5.183			-2.592
171802.000			5.183			-2.591
171900.000			5.183			-2.591
172000.000			5.182			-2.591
172101.000			5.182			-2.591
172200.000			5.183			-2.591
172300.000			5.182			-2.591
172401.000			5.182			-2.591
172500.000			5.181			-2.591
172601.000			5.182			-2.591
172702.000			5.182			-2.591
172800.000			5.182			-2.591
172900.000			5.182			-2.591
173001.000			5.181			-2.590
173100.000			5.181			-2.591
173200.000			5.183			-2.592
173301.000			5.183			-2.591
173400.000			5.181			-2.590
173501.000			5.180			-2.590
173602.000			5.182			-2.591
173701.000			5.182			-2.591
173800.000			5.182			-2.591
173901.000			5.181			-2.591
174000.000			5.181			-2.591
174100.000			5.181			-2.591
174200.000			5.181			-2.591
174300.000			5.182			-2.591
174402.000			5.182			-2.591
174501.000			5.181			-2.591
174601.000			5.180			-2.590
174701.000			5.181			-2.590
174800.000			5.180			-2.590
174900.000			5.181			-2.591
175001.000			5.181			-2.591
175100.000			5.182			-2.591
175200.000			5.181			-2.591
175301.000			5.180			-2.590
175401.000			5.180			-2.590
175501.000			5.182			-2.591
175601.000			5.181			-2.591
175700.000			5.181			-2.591
175800.000			5.181			-2.591
175901.000			5.182			-2.591
176000.000			5.181			-2.590
176100.000			5.180			-2.590
176201.000			5.180			-2.590
176301.000			5.181			-2.590
176401.000			5.181			-2.590
176501.000			5.180			-2.590
176600.000			5.180			-2.590
176700.000			5.181			-2.590
176801.000			5.181			-2.590
176900.000			5.180			-2.590
177000.000			5.180			-2.590
177101.000			5.180			-2.590
177201.000			5.180			-2.590
177302.000			5.180			-2.590
177401.000			5.180			-2.590
177500.000			5.179			-2.590
177601.000			5.179			-2.590
177700.000			5.180			-2.590
177800.000			5.181			-2.590
177901.000			5.181			-2.590
178000.000			5.180			-2.590
178100.000			5.180			-2.590
178202.000			5.180			-2.590
178301.000			5.180			-2.590
178400.000			5.179			-2.590
178501.000			5.180			-2.590
178600.000			5.179			-2.590
178700.000			5.179			-2.589
178801.000			5.180			-2.590
178900.000			5.179			-2.590
179000.000			5.179			-2.589
179102.000			5.179			-2.590
179201.000			5.180			-2.590
179301.000			5.180			-2.590
179401.000			5.179			-2.589
179500.000			5.179			-2.589
179600.000			5.179			-2.589
179701.000			5.178			-2.589
179800.000			5.177			-2.589
179900.000			5.180			-2.590
180001.000			5.179			-2.590
180101.000			5.178			-2.589
180201.000			5.178			-2.589
180301.000			5.178			-2.589
180400.000			5.179			-2.590
180500.000			5.179			-2.589
180600.000			5.179			-2.589
180700.000			5.180			-2.590
180801.000			5.180			-2.590
180900.000			5.180			-2.590
181000.000			5.179			-2.590
181102.000			5.179			-2.590
181201.000			5.179			-2.589
181300.000			5.179			-2.590
181401.000			5.179			-2.589
181500.000			5.179			-2.589
181600.000			5.178			-2.589
181701.000			5.178			-2.589
181800.000			5.179			-2.590
181900.000			5.178			-2.589
182002.000			5.179			-2.589
182101.000			5.178			-2.589
182201.000			5.178			-2.589
182301.000			5.178			-2.589
182400.000			5.178			-2.589
182500.000			5.178			-2.589
182601.000			5.179			-2.589
182700.000			5.178			-2.589
182800.000			5.177			-2.589
182902.000			5.178			-2.589
183001.000			5.179			-2.590
183101.000			5.179			-2.589
183201.000			5.178			-2.589
183300.000			5.178			-2.589
183400.000			5.178			-2.589
183501.000			5.177			-2.589
183600.000			5.177			-2.589
183700.000			5.177			-2.589
183800.000			5.177			-2.589
183901.000			5.177			-2.589
184002.000			5.177			-2.589
184101.000			5.177			-2.589
184200.000			5.177			-2.589
184301.000			5.178			-2.589
184400.000			5.177			-2.589
184500.000			5.177			-2.588
184601.000			5.178			-2.589
184700.000			5.178			-2.589
184800.000			5.178			-2.589
184902.000			5.177			-2.589
185001.000			5.177			-2.589
185100.000			5.177			-2.589
185201.000			5.178			-2.589
185300.000			5.178			-2.589
185400.000			5.177			-2.589
185501.000			5.178			-2.589
185600.000			5.178			-2.589
185700.000			5.176			-2.588
185802.000			5.178			-2.589
185901.000			5.177			-2.589
186001.000			5.178			-2.589
186101.000			5.177			-2.588
186200.000			5.176			-2.588
186300.000			5.176			-2.588
186401.000			5.176			-2.588
186500.000			5.176			-2.588
186600.000			5.176			-2.588
186701.000			5.177			-2.588
186801.000			5.177			-2.589
186902.000			5.176			-2.588
187000.000			5.176			-2.588
187100.000			5.177			-2.589
187201.000			5.177			-2.588
187300.000			5.176			-2.588
187400.000			5.177			-2.588
187501.000			5.176			-2.588
187600.000			5.176			-2.588
187701.000			5.176			-2.588
187802.000			5.177			-2.589
187901.000			5.176			-2.588
188000.000			5.176			-2.588
188101.000			5.176			-2.588
188200.000			5.175			-2.587
188300.000			5.176			-2.588
188401.000			5.177			-2.588
188500.000			5.175			-2.588
188600.000			5.175			-2.587
188702.000			5.176			-2.588
188801.000			5.176			-2.588
188900.000			5.176			-2.588
189001.000			5.176			-2.588
189100.000			5.177			-2.588
189200.000			5.177			-2.589
189301.000			5.176			-2.588
189400.000			5.175			-2.588
189500.000			5.176			-2.588
189602.000			5.176			-2.588
189701.000			5.175			-2.588
189801.000			5.175			-2.587
189901.000			5.175			-2.588
190000.000			5.176			-2.588
190100.000			5.176			-2.588
190200.000			5.176			-2.588
190300.000			5.175			-2.587
190401.000			5.175			-2.588
190500.000			5.175			-2.588
190601.000			5.175			-2.588
190702.000			5.175			-2.587
190800.000			5.174			-2.587
190900.000			5.174			-2.587
191001.000			5.175			-2.587
191100.000			5.174			-2.587
191200.000			5.174			-2.587
191301.000			5.174			-2.587
191400.000			5.174			-2.587
191501.000			5.174			-2.587
191602.000			5.175			-2.588
191700.000			5.176			-2.588
191800.000			5.175			-2.587
191901.000			5.174			-2.587
192000.000			5.174			-2.587
192100.000			5.175			-2.587
192201.000			5.174			-2.587
192300.000			5.174			-2.587
192401.000			5.174			-2.587
192502.000			5.174			-2.587
192601.000			5.174			-2.587
192700.000			5.174			-2.587
192801.000			5.175			-2.587
192900.000			5.175			-2.587
193000.000			5.175			-2.588
193101.000			5.175			-2.587
193200.000			5.175			-2.587
193302.000			5.175			-2.587
193401.000			5.174			-2.587
193501.000			5.174			-2.587
193601.000			5.173			-2.587
193700.000			5.174			-2.587
193800.000			5.174			-2.587
193901.000			5.175			-2.587
194000.000			5.174			-2.587
194100.000			5.173			-2.587
194201.000			5.173			-2.587
194301.000			5.174			-2.587
194401.000			5.174			-2.587
194501.000			5.174			-2.587
194600.000			5.174			-2.587
194700.000			5.174			-2.587
194801.000			5.175			-2.587
194900.000			5.174			-2.587
195000.000			5.174			-2.587
195101.000			5.176			-2.588
195201.000			5.175			-2.588
195301.000			5.175			-2.587
195402.000			5.175			-2.587
195500.000			5.173			-2.587
195600.000			5.174			-2.587
195701.000			5.174			-2.587
195800.000			5.174			-2.587
195900.000			5.174			-2.587
196001.000			5.174			-2.587
196100.000			5.174			-2.587
196201.000			5.174			-2.587
196302.000			5.174			-2.587
196400.000			5.174			-2.587
196500.000			5.173			-2.587
196600.000			5.172			-2.586
196700.000			5.173			-2.586
196801.000			5.174			-2.587
196900.000			5.173			-2.587
197000.000			5.174			-2.587
197102.000			5.174			-2.587
197201.000			5.174			-2.587
197301.000			5.172			-2.586
197401.000			5.173			-2.586
197500.000			5.173			-2.587
197600.000			5.174			-2.587
197701.000			5.173			-2.586
197800.000			5.171			-2.586
197900.000			5.172			-2.586
198001.000			5.173			-2.587
198101.000			5.172			-2.586
198201.000			5.172			-2.586
198301.000			5.173			-2.587
198400.000			5.174			-2.587
198500.000			5.173			-2.587
198601.000			5.173			-2.587
198700.000			4.460			-2.230
198800.000			136.217			-68.109
198901.000			5.172			-2.586
199001.000			5.173			-2.587
199101.000			5.173			-2.586
199201.000			5.173			-2.587
199300.000			5.173			-2.587
199400.000			5.172			-2.586
199501.000			5.172			-2.586
199600.000			5.172			-2.586
199700.000			5.172			-2.586
199800.000			5.172			-2.586
199900.000			5.172			-2.586
200002.000			5.173			-2.586
200101.000			5.173			-2.586
200200.000			5.172			-2.586
200301.000			5.172			-2.586
200400.000			5.172			-2.586
200500.000			5.172			-2.586
200601.000			5.172			-2.586
200700.000			5.172			-2.586
200801.000			5.173			-2.586
200902.000			5.172			-2.586
201001.000			5.173			-2.586
201100.000			5.172			-2.586
201201.000			5.173			-2.586
201300.000			5.173			-2.586
201400.000			5.172			-2.586
201501.000			5.171			-2.586
201600.000			5.172			-2.586
201701.000			5.171			-2.586
201802.000			5.171			-2.586
201901.000			5.171			-2.586
202000.000			5.171			-2.586
202101.000			5.171			-2.585
202200.000			5.172			-2.586
202300.000			5.172			-2.586
202401.000			5.171			-2.585
202500.000			5.172			-2.586
202601.000			5.172			-2.586
202702.000			5.172			-2.586
202800.000			5.171			-2.586
202900.000			5.171			-2.586
203000.000			5.171			-2.586
203100.000			5.171			-2.585
203201.000			5.170			-2.585
203300.000			5.171			-2.586
203400.000			5.172			-2.586
203502.000			5.171			-2.586
203601.000			5.170			-2.585
203700.000			5.170			-2.585
203801.000			5.171			-2.585
203900.000			5.170			-2.585
204000.000			5.170			-2.585
204101.000			5.171			-2.585
204200.000			5.170			-2.585
204300.000			5.170			-2.585
204402.000			5.170			-2.585
204501.000			5.170			-2.585
204600.000			5.170			-2.585
204701.000			5.170			-2.585
204800.000			5.170			-2.585
204900.000			5.171			-2.586
205001.000			5.172			-2.586
205100.000			5.171			-2.586
205200.000			5.171			-2.585
205302.000			5.170			-2.585
205401.000			5.170			-2.585
205500.000			5.170			-2.585
205601.000			5.170			-2.585
205700.000			5.170			-2.585
205800.000			5.171			-2.585
205901.000			5.171			-2.586
206000.000			5.169			-2.584
206100.000			5.169			-2.584
206202.000			5.169			-2.585
206301.000			5.170			-2.585
206401.000			5.170			-2.585
206500.000			5.170			-2.585
206600.000			5.170			-2.585
206701.000			5.170			-2.585
206800.000			5.170			-2.585
206900.000			5.170			-2.585
207001.000			5.170			-2.585
207101.000			5.170			-2.585
207201.000			5.170			-2.585
207301.000			5.169			-2.584
207400.000			5.171			-2.585
207500.000			5.170			-2.585
207601.000			5.168			-2.584
207700.000			5.169			-2.584
207800.000			5.169			-2.585
207901.000			5.170			-2.585
208001.000			5.170			-2.585
208101.000			5.170			-2.585
208201.000			5.169			-2.584
208300.000			5.169			-2.585
208400.000			5.170			-2.585
208501.000			5.170			-2.585
208600.000			5.171			-2.585
208700.000			5.170			-2.585
208801.000			5.169			-2.585
208901.000			5.168			-2.584
209001.000			5.170			-2.585
209102.000			5.170			-2.585
209200.000			5.170			-2.585
209300.000			5.169			-2.585
209400.000			5.169			-2.585
209500.000			5.169			-2.584
209601.000			5.169			-2.584
209700.000			5.168			-2.584
209800.000			5.169			-2.585
209902.000			5.170			-2.585
210001.000			5.170			-2.585
210100.000			5.169			-2.584
210201.000			5.169			-2.584
210300.000			5.168			-2.584
210400.000			5.168			-2.584
210501.000			5.168			-2.584
210600.000			5.169			-2.585
210700.000			5.169			-2.585
210802.000			5.169			-2.585
210901.000			5.168			-2.584
211000.000			5.168			-2.584
211101.000			5.170			-2.585
211200.000			5.169			-2.584
211300.000			5.168			-2.584
211401.000			5.169			-2.584
211500.000			5.169			-2.585
211600.000			5.168			-2.584
211702.000			5.168			-2.584
211801.000			5.169			-2.585
211900.000			5.170			-2.585
212001.000			5.169			-2.585
212100.000			5.170			-2.585
212200.000			5.169			-2.585
212301.000			5.169			-2.584
212400.000			5.169			-2.584
212500.000			5.169			-2.585
212602.000			5.170			-2.585
212701.000			5.169			-2.584
212801.000			5.167			-2.584
212900.000			5.168			-2.584
213000.000			5.169			-2.584
213101.000			5.169			-2.585
213200.000			5.168			-2.584
213300.000			5.167			-2.584
213401.000			5.167			-2.583
213501.000			5.168			-2.584
213601.000			5.169			-2.585
213701.000			5.169			-2.584
213800.000			5.169			-2.584
213900.000			5.168			-2.584
214001.000			5.169			-2.584
214100.000			5.168			-2.584
214200.000			5.167			-2.584
214301.000			5.169			-2.584
214401.000			5.169			-2.584
214501.000			5.169			-2.584
214601.000			5.169			-2.584
214700.000			5.169			-2.584
214800.000			5.168			-2.584
214901.000			5.167			-2.584
215000.000			5.167			-2.584
215100.000			5.167			-2.584
215201.000			5.167			-2.583
215301.000			5.166			-2.583
215401.000			5.168			-2.584
215502.000			5.167			-2.584
215600.000			5.167			-2.584
215700.000			5.167			-2.584
215800.000			5.167			-2.584
215900.000			5.167			-2.584
216001.000			5.167			-2.583
216100.000			5.167			-2.584
216200.000			5.166			-2.583
216302.000			5.168			-2.584
216401.000			5.168			-2.584
216500.000			5.167			-2.584
216601.000			5.167			-2.584
216700.000			5.168			-2.584
216800.000			5.167			-2.584
216901.000			5.168			-2.584
217000.000			5.167			-2.583
217100.000			5.166			-2.583
217202.000			5.167			-2.583
217301.000			5.167			-2.584
217400.000			5.167			-2.584
217501.000			5.167			-2.583
217600.000			5.166			-2.583
217700.000			5.167			-2.584
217801.000			5.167			-2.583
217900.000			5.167			-2.583
218000.000			5.167			-2.584
218102.000			5.167			-2.584
218201.000			5.166			-2.583
218300.000			5.167			-2.584
218401.000			5.166			-2.583
218500.000			5.166			-2.583
218600.000			5.166			-2.583
218701.000			5.167			-2.583
218800.000			5.166			-2.583
218900.000			5.166			-2.583
219002.000			5.167			-2.584
219101.000			5.167			-2.583
219201.000			5.166			-2.583
219300.000			5.167			-2.583
219400.000			5.167			-2.583
219501.000			5.166			-2.583
219600.000			5.167			-2.583
219700.000			5.166			-2.583
219801.000			5.167			-2.583
219901.000			5.167			-2.583
220001.000			5.167			-2.583
220102.000			5.166			-2.583
220200.000			5.166			-2.583
220300.000			5.166			-2.583
220401.000			5.166			-2.583
220500.000			5.166			-2.583
220600.000			5.166			-2.583
220701.000			5.166			-2.583
220801.000			5.166			-2.583
220901.000			5.166			-2.583
221002.000			5.165			-2.583
221100.000			5.165			-2.582
221200.000			5.165			-2.583
221301.000			5.166			-2.583
221400.000			5.165			-2.583
221500.000			5.165			-2.583
221601.000			5.166			-2.583
221701.000			5.166			-2.583
221801.000			5.166			-2.583
221902.000			5.165			-2.583
222000.000			5.164			-2.582
222100.000			5.165			-2.582
222200.000			5.166			-2.583
222300.000			5.165			-2.583
222401.000			5.165			-2.582
222500.000			5.165			-2.583
222600.000			5.165			-2.583
222702.000			5.165			-2.582
222801.000			5.165			-2.582
222900.000			5.165			-2.583
223001.000			5.165			-2.582
223100.000			5.164			-2.582
223200.000			5.165			-2.582
223301.000			5.165			-2.583
223400.000			5.164			-2.582
223501.000			5.164			-2.582
223602.000			5.165			-2.583
223701.000			5.165			-2.582
223800.000			5.164			-2.582
223901.000			5.165			-2.582
224000.000			5.164			-2.582
224100.000			5.164			-2.582
224201.000			5.165			-2.583
224300.000			5.164			-2.582
224400.000			5.163			-2.582
224502.000			5.163			-2.582
224601.000			5.164			-2.582
224700.000			5.165			-2.582
224801.000			5.164			-2.582
224900.000			5.164			-2.582
225000.000			5.164			-2.582
225101.000			5.164			-2.582
225200.000			5.165			-2.582
225300.000			5.165			-2.583
225402.000			5.165			-2.583
225501.000			5.164			-2.582
225601.000			5.164			-2.582
225700.000			5.163			-2.582
225800.000			5.164			-2.582
225901.000			5.164			-2.582
226000.000			5.163			-2.582
226100.000			5.163			-2.582
226201.000			5.163			-2.582
226301.000			5.165			-2.582
226401.000			5.164			-2.582
226501.000			5.163			-2.582
226600.000			5.163			-2.582
226700.000			5.163			-2.582
226801.000			5.163			-2.581
226900.000			5.163			-2.582
227000.000			5.163			-2.582
227101.000			5.163			-2.582
227201.000			5.163			-2.582
227301.000			5.164			-2.582
227401.000			5.164			-2.582
227500.000			5.164			-2.582
227600.000			5.164			-2.582
227701.000			5.164			-2.582
227800.000			5.163			-2.581
227900.000			5.164			-2.582
228001.000			5.164			-2.582
228101.000			5.163			-2.582
228201.000			5.163			-2.581
228301.000			5.162			-2.581
228400.000			5.163			-2.581
228500.000			5.163			-2.581
228600.000			5.163			-2.582
228700.000			5.163			-2.581
228801.000			5.163			-2.581
228900.000			5.163			-2.582
229001.000			5.163			-2.582
229102.000			5.163			-2.582
229201.000			5.162			-2.581
229300.000			5.161			-2.581
229401.000			5.162			-2.581
229500.000			5.162			-2.581
229600.000			5.162			-2.581
229701.000			5.162			-2.581
229800.000			5.162			-2.581
229901.000			5.161			-2.581
230002.000			5.162			-2.581
230101.000			5.162			-2.581
230200.000			5.161			-2.581
230301.000			5.161			-2.581
230400.000			5.162			-2.581
230500.000			5.161			-2.580
230601.000			5.162			-2.581
230700.000			5.163			-2.581
230801.000			5.162			-2.581
230902.000			5.162			-2.581
231001.000			5.163			-2.582
231100.000			5.163			-2.581
231201.000			5.162			-2.581
231300.000			5.161			-2.581
231400.000			5.162			-2.581
231501.000			5.162			-2.581
231600.000			5.161			-2.581
231702.000			5.161			-2.580
231801.000			5.161			-2.581
231900.000			5.161			-2.580
232001.000			5.162			-2.581
232100.000			5.161			-2.581
232200.000			5.161			-2.581
232301.000			5.161			-2.581
232400.000			5.162			-2.581
232500.000			5.162			-2.581
232602.000			5.162			-2.581
232701.000			5.161			-2.580
232800.000			5.161			-2.580
232901.000			5.162			-2.581
233000.000			5.162			-2.581
233100.000			5.162			-2.581
233201.000			5.162			-2.581
233300.000			5.162			-2.581
233400.000			5.161			-2.581
233502.000			5.161			-2.580
233601.000			5.160			-2.580
233700.000			5.161			-2.581
233801.000			5.162			-2.581
233900.000			5.161			-2.581
234000.000			5.162			-2.581
234101.000			5.162			-2.581
234200.000			5.161			-2.581
234301.000			5.161			-2.580
234402.000			5.161			-2.581
234501.000			5.162			-2.581
234600.000			5.161			-2.581
234701.000			5.161			-2.581
234800.000			5.161			-2.581
234900.000			5.161			-2.581
235000.000			5.160			-2.580
235100.000			5.161			-2.580
235202.000			5.160			-2.580
235301.000			5.160			-2.580
235401.000			5.161			-2.580
235501.000			5.161			-2.580
235600.000			5.162			-2.581
235700.000			5.161			-2.580
235801.000			5.162			-2.581
235900.000			5.163			-2.581
236000.000			5.162			-2.581
236102.000			5.161			-2.580
236201.000			5.160			-2.580
236301.000			5.160			-2.580
236401.000			5.160			-2.580
236500.000			5.160			-2.580
236600.000			5.160			-2.580
236701.000			5.160			-2.580
236800.000			5.160			-2.580
236900.000			5.159			-2.580
237001.000			5.159			-2.580
237101.000			5.160			-2.580
237201.000			5.161			-2.581
237301.000			5.160			-2.580
237400.000			5.160			-2.580
237500.000			5.160			-2.580
237601.000			5.160			-2.580
237700.000			5.161			-2.580
237800.000			5.160			-2.580
237901.000			5.159			-2.580
238001.000			5.159			-2.580
238102.000			5.160			-2.580
238201.000			5.159			-2.580
238300.000			5.160			-2.580
238401.000			5.160			-2.580
238500.000			5.160			-2.580
238600.000			5.160			-2.580
238701.000			5.159			-2.579
238800.000			5.159			-2.579
238901.000			5.159			-2.579
239002.000			5.159			-2.580
239101.000			5.160			-2.580
239200.000			5.160			-2.580
239301.000			5.160			-2.580
239400.000			5.159			-2.579
239500.000			5.159			-2.580
239601.000			5.159			-2.580
239700.000			5.160			-2.580
239800.000			5.160			-2.580
239902.000			5.159			-2.580
240001.000			5.159			-2.579
240100.000			5.159			-2.580
240201.000			5.159			-2.579
240300.000			5.160			-2.580
240400.000			5.159			-2.580
240501.000			5.159			-2.579
240600.000			5.159			-2.580
240700.000			5.159			-2.580
240802.000			5.159			-2.580
240901.000			5.159			-2.580
241000.000			5.158			-2.579
241101.000			5.158			-2.579
241200.000			5.159			-2.579
241300.000			5.159			-2.580
241400.000			5.159			-2.579
241500.000			5.158			-2.579
241601.000			5.159			-2.580
241701.000			5.159			-2.580
241801.000			5.158			-2.579
241901.000			5.158			-2.579
242000.000			5.158			-2.579
242100.000			5.159			-2.580
242201.000			5.159			-2.579
242300.000			5.159			-2.579
242400.000			5.159			-2.579
242501.000			5.158			-2.579
242601.000			5.158			-2.579
242701.000			5.159			-2.580
242802.000			5.160			-2.580
242900.000			5.160			-2.580
243000.000			5.158			-2.579
243101.000			5.158			-2.579
243200.000			5.158			-2.579
243300.000			5.159			-2.580
243401.000			5.159			-2.579
243501.000			5.159			-2.579
243601.000			5.159			-2.579
243702.000			5.158			-2.579
243800.000			5.158			-2.579
243900.000			5.157			-2.579
244001.000			5.158			-2.579
244100.000			5.158			-2.579
244200.000			5.158			-2.579
244301.000			5.158			-2.579
244400.000			5.158			-2.579
244502.000			5.158			-2.579
244601.000			5.158			-2.579
244700.000			5.158			-2.579
244801.000			5.157			-2.578
244900.000			5.158			-2.579
245000.000			5.158			-2.579
245101.000			5.157			-2.579
245200.000			5.158			-2.579
245300.000			5.158			-2.579
245402.000			5.158			-2.579
245501.000			5.158			-2.579
245601.000			5.157			-2.579
245701.000			5.157			-2.579
245800.000			5.157			-2.579
245900.000			5.158			-2.579
246001.000			5.158			-2.579
246100.000			5.156			-2.578
246200.000			5.157			-2.579
246302.000			5.158			-2.579
246401.000			5.158			-2.579
246501.000			5.156			-2.578
246601.000			5.157			-2.578
246700.000			5.157			-2.579
246800.000			5.158			-2.579
246901.000			5.157			-2.578
247000.000			5.156			-2.578
247100.000			5.157			-2.579
247201.000			5.157			-2.579
247301.000			5.157			-2.579
247401.000			5.158			-2.579
247501.000			5.157			-2.578
247600.000			5.156			-2.578
247700.000			5.157			-2.578
247800.000			5.157			-2.579
247900.000			5.158			-2.579
248001.000			5.158			-2.579
248100.000			5.157			-2.578
248201.000			5.157			-2.578
248302.000			5.157			-2.579
248401.000			5.158			-2.579
248500.000			5.157			-2.578
248601.000			5.157			-2.578
248700.000			5.156			-2.578
248800.000			5.156			-2.578
248901.000			5.156			-2.578
249000.000			5.157			-2.578
249100.000			5.156			-2.578
249202.000			5.156			-2.578
249301.000			5.156			-2.578
249400.000			5.157			-2.578
249501.000			5.157			-2.579
249600.000			5.157			-2.578
249700.000			5.155			-2.578
249801.000			5.156			-2.578
249900.000			5.156			-2.578
250000.000			5.155			-2.578
250102.000			5.156			-2.578
250201.000			5.157			-2.579
250300.000			5.156			-2.578
250401.000			5.156			-2.578
250500.000			5.157			-2.578
250600.000			5.157			-2.578
250701.000			5.157			-2.579
250800.000			5.157			-2.578
250900.000			5.156			-2.578
251002.000			5.156			-2.578
251101.000			5.156			-2.578
251202.000			5.156			-2.578
251300.000			5.156			-2.578
251400.000			5.155			-2.578
251501.000			5.155			-2.578
251600.000			5.156			-2.578
251700.000			5.156			-2.578
251801.000			5.157			-2.578
251901.000			5.156			-2.578
252001.000			5.156			-2.578
252102.000			5.156			-2.578
252200.000			5.156			-2.578
252300.000			5.156			-2.578
252401.000			5.155			-2.578
252500.000			5.155			-2.577
252600.000			5.156			-2.578
252701.000			5.156			-2.578
252801.000			5.157			-2.578
252901.000			5.156			-2.578
253002.000			5.156			-2.578
253100.000			5.156			-2.578
253200.000			5.156			-2.578
253301.000			5.156			-2.578
253400.000			5.156			-2.578
253500.000			5.155			-2.578
253601.000			5.156			-2.578
253700.000			5.156			-2.578
253801.000			5.156			-2.578
253902.000			5.155			-2.578
254001.000			5.155			-2.578
254100.000			5.156			-2.578
254200.000			5.155			-2.578
254300.000			5.155			-2.577
254401.000			5.155			-2.578
254500.000			5.156			-2.578
254600.000			5.155			-2.577
254702.000			5.155			-2.577
254801.000			5.155			-2.578
254901.000			5.156			-2.578
255001.000			5.156			-2.578
255100.000			5.157			-2.578
255200.000			5.157			-2.578
255301.000			5.155			-2.578
255400.000			5.155			-2.578
255500.000			5.156			-2.578
255601.000			5.156			-2.578
255701.000			5.155			-2.577
255801.000			5.154			-2.577
255901.000			5.154			-2.577
256000.000			5.155			-2.578
256100.000			5.155			-2.578
256201.000			5.155			-2.577
256300.000			5.154			-2.577
256400.000			5.154			-2.577
256501.000			5.155			-2.577
256601.000			5.155			-2.577
256701.000			5.154			-2.577
256801.000			5.154			-2.577
256900.000			5.156			-2.578
257000.000			5.156			-2.578
257101.000			5.155			-2.578
257200.000			5.155			-2.577
257300.000			5.155			-2.577
257400.000			5.155			-2.577
257501.000			5.153			-2.577
257602.000			5.153			-2.577
257701.000			5.154			-2.577
257800.000			5.154			-2.577
257901.000			5.154			-2.577
258000.000			5.154			-2.577
258100.000			5.154			-2.577
258201.000			5.154			-2.577
258300.000			5.153			-2.577
258400.000			5.154			-2.577
258502.000			5.154			-2.577
258601.000			5.154			-2.577
258700.000			5.154			-2.577
258801.000			5.154			-2.577
258900.000			5.153			-2.577
259000.000			5.153			-2.576
259101.000			5.154			-2.577
259200.000			5.154			-2.577
259300.000			5.154			-2.577
259402.000			5.154			-2.577
259501.000			5.154			-2.577
259600.000			5.154			-2.577
259701.000			5.154			-2.577
259800.000			5.154			-2.577
259900.000			5.153			-2.576
260001.000			5.153			-2.577
260100.000			5.153			-2.577
260200.000			5.153			-2.577
260302.000			5.154			-2.577
260401.000			5.153			-2.577
260500.000			5.154			-2.577
260600.000			5.154			-2.577
260700.000			5.153			-2.577
260801.000			5.154			-2.577
260900.000			5.153			-2.576
261000.000			5.153			-2.576
261101.000			5.152			-2.576
261201.000			5.153			-2.576
261301.000			5.154			-2.577
261401.000			5.153			-2.576
261500.000			5.153			-2.577
261600.000			5.153			-2.576
261701.000			5.152			-2.576
261800.000			5.153			-2.576
261900.000			5.152			-2.576
262001.000			5.152			-2.576
262101.000			5.152			-2.576
262201.000			5.153			-2.577
262301.000			5.153			-2.576
262400.000			5.153			-2.577
262500.000			5.153			-2.576
262601.000			5.153			-2.576
262700.000			5.153			-2.577
262800.000			5.153			-2.577
262901.000			5.153			-2.576
263001.000			5.153			-2.576
263101.000			5.153			-2.576
263201.000			5.153			-2.576
263300.000			5.151			-2.576
263400.000			5.152			-2.576
263501.000			5.152			-2.576
263600.000			5.151			-2.576
263700.000			5.152			-2.576
263800.000			5.153			-2.576
263901.000			5.153			-2.576
264002.000			5.152			-2.576
264100.000			5.152			-2.576
264200.000			5.152			-2.576
264301.000			5.153			-2.576
264400.000			5.153			-2.576
264500.000			5.152			-2.576
264601.000			5.152			-2.576
264700.000			5.152			-2.576
264801.000			5.152			-2.576
264902.000			5.151			-2.576
265000.000			5.152			-2.576
265100.000			5.152			-2.576
265201.000			5.151			-2.575
265300.000			5.151			-2.576
265400.000			5.153			-2.576
265501.000			5.153			-2.577
265600.000			5.152			-2.576
265701.000			5.151			-2.576
265802.000			5.152			-2.576
265900.000			5.151			-2.576
266000.000			5.152			-2.576
266101.000			5.153			-2.576
266200.000			5.152			-2.576
266300.000			5.151			-2.576
266401.000			5.151			-2.576
266501.000			5.151			-2.576
266601.000			5.151			-2.575
266702.000			5.151			-2.576
266800.000			5.151			-2.575
266900.000			5.151			-2.575
267000.000			5.151			-2.576
267100.000			5.151			-2.576
267201.000			5.152			-2.576
267300.000			5.151			-2.576
267400.000			5.152			-2.576
267502.000			5.152			-2.576
267601.000			5.151			-2.576
267700.000			5.151			-2.575
267801.000			5.150			-2.575
267900.000			5.151			-2.575
268000.000			5.151			-2.575
268101.000			5.151			-2.575
268200.000			5.152			-2.576
268300.000			5.152			-2.576
268402.000			5.152			-2.576
268501.000			5.152			-2.576
268600.000			5.152			-2.576
268701.000			5.151			-2.576
268800.000			5.151			-2.575
268900.000			5.151			-2.576
269001.000			5.152			-2.576
269100.000			5.153			-2.576
269200.000			5.153			-2.576
269302.000			5.152			-2.576
269401.000			5.151			-2.576
269501.000			5.151			-2.576
269601.000			5.151			-2.576
269700.000			5.151			-2.575
269800.000			5.151			-2.576
269901.000			5.152			-2.576
270000.000			5.152			-2.576
270100.000			5.151			-2.576
270202.000			5.152			-2.576
270301.000			5.152			-2.576
270401.000			5.151			-2.575
270500.000			5.151			-2.576
270600.000			5.151			-2.576
270701.000			5.151			-2.576
270800.000			5.152			-2.576
270900.000			5.152			-2.576
271001.000			5.150			-2.575
271101.000			5.150			-2.575
271201.000			5.150			-2.575
271301.000			5.151			-2.576
271400.000			5.150			-2.575
271500.000			5.151			-2.575
271601.000			5.151			-2.575
271700.000			5.151			-2.576
271800.000			5.151			-2.575
271901.000			5.150			-2.575
272001.000			5.150			-2.575
272101.000			5.150			-2.575
272201.000			5.149			-2.575
272300.000			5.149			-2.575
272400.000			5.150			-2.575
272501.000			5.150			-2.575
272600.000			5.150			-2.575
272700.000			5.149			-2.575
272801.000			5.149			-2.575
272901.000			5.150			-2.575
273001.000			5.150			-2.575
273101.000			5.150			-2.575
273200.000			5.150			-2.575
273300.000			5.150			-2.575
273400.000			5.150			-2.575
273500.000			5.149			-2.575
273601.000			5.150			-2.575
273700.000			5.149			-2.575
273801.000			5.150			-2.575
273902.000			5.150			-2.575
274001.000			5.151			-2.575
274100.000			5.150			-2.575
274201.000			5.149			-2.575
274300.000			5.149			-2.575
274400.000			5.149			-2.575
274501.000			5.150			-2.575
274600.000			5.150			-2.575
274701.000			5.150			-2.575
274802.000			5.150			-2.575
274901.000			5.150			-2.575
275000.000			5.150			-2.575
275101.000			5.150			-2.575
275200.000			5.150			-2.575
275300.000			5.150			-2.575
275401.000			5.149			-2.575
275500.000			5.150			-2.575
275600.000			5.150			-2.575
275702.000			5.149			-2.575
275801.000			5.150			-2.575
275900.000			5.149			-2.575
276001.000			5.148			-2.574
276100.000			5.149			-2.575
276200.000			5.149			-2.575
276301.000			5.149			-2.574
276400.000			5.150			-2.575
276500.000			5.150			-2.575
276602.000			5.150			-2.575
276701.000			5.149			-2.574
276801.000			5.149			-2.575
276900.000			5.150			-2.575
277000.000			5.150			-2.575
277101.000			5.149			-2.574
277200.000			5.149			-2.575
277300.000			5.150			-2.575
277401.000			5.149			-2.575
277501.000			5.149			-2.574
277601.000			5.149			-2.575
277701.000			5.149			-2.574
277800.000			5.149			-2.575
277900.000			5.149			-2.575
278001.000			5.149			-2.575
278100.000			5.150			-2.575
278200.000			5.150			-2.575
278301.000			5.149			-2.575
278401.000			5.149			-2.575
278501.000			5.149			-2.574
278602.000			5.149			-2.574
278700.000			5.148			-2.574
278800.000			5.149			-2.574
278901.000			5.149			-2.575
279000.000			5.149			-2.574
279100.000			5.149			-2.574
279201.000			5.148			-2.574
279300.000			5.149			-2.574
279401.000			5.149			-2.575
279502.000			5.149			-2.574
279601.000			5.148			-2.574
279700.000			5.149			-2.574
279800.000			5.149			-2.574
279900.000			5.148			-2.574
280001.000			5.148			-2.574
280100.000			5.149			-2.574
280200.000			5.149			-2.574
280301.000			5.149			-2.574
280401.000			5.148			-2.574
280501.000			5.149			-2.574
280601.000			5.149			-2.575
280700.000			5.150			-2.575
280800.000			5.150			-2.575
280901.000			5.150			-2.575
281000.000			5.149			-2.575
281100.000			5.148			-2.574
281201.000			5.148			-2.574
281301.000			5.149			-2.574
281401.000			5.149			-2.575
281501.000			5.149			-2.574
281600.000			5.148			-2.574
281700.000			5.148			-2.574
281801.000			5.148			-2.574
281900.000			5.149			-2.574
282000.000			5.149			-2.574
282101.000			5.149			-2.574
282201.000			5.149			-2.574
282301.000			5.149			-2.574
282402.000			5.149			-2.575
282500.000			5.149			-2.575
282600.000			5.148			-2.574
282701.000			5.148			-2.574
282800.000			5.147			-2.574
282900.000			5.148			-2.574
283000.000			5.148			-2.574
283100.000			5.148			-2.574
283202.000			5.148			-2.574
283301.000			5.148			-2.574
283400.000			5.148			-2.574
283501.000			5.149			-2.574
283600.000			5.149			-2.574
283700.000			5.148			-2.574
283801.000			5.148			-2.574
283900.000			5.149			-2.574
284000.000			5.148			-2.574
284102.000			5.148			-2.574
284201.000			5.149			-2.574
284300.000			5.147			-2.573
284401.000			5.147			-2.574
284500.000			5.147			-2.574
284600.000			5.148			-2.574
284701.000			5.147			-2.574
284800.000			5.147			-2.573
284900.000			5.147			-2.574
285002.000			5.148			-2.574
285101.000			5.146			-2.573
285201.000			5.147			-2.573
285301.000			5.147			-2.574
285400.000			5.148			-2.574
285500.000			5.147			-2.574
285601.000			5.147			-2.574
285700.000			5.147			-2.574
285800.000			5.148			-2.574
285902.000			5.148			-2.574
286001.000			5.147			-2.573
286102.000			5.148			-2.574
286200.000			5.148			-2.574
286300.000			5.147			-2.574
286401.000			5.148			-2.574
286500.000			5.148			-2.574
286600.000			5.148			-2.574
286701.000			5.147			-2.574
286800.000			5.147			-2.574
286901.000			5.148			-2.574
287002.000			5.148			-2.574
287100.000			5.147			-2.573
287200.000			5.147			-2.573
287301.000			5.148			-2.574
287400.000			5.147			-2.574
287500.000			5.148			-2.574
287601.000			5.148			-2.574
287700.000			5.148			-2.574
287801.000			5.147			-2.574
287902.000			5.146			-2.573
288001.000			5.147			-2.574
288100.000			5.147			-2.574
288201.000			5.148			-2.574
288300.000			5.147			-2.574
288400.000			5.147			-2.574
288501.000			5.147			-2.573
288600.000			5.147			-2.573
288700.000			5.147			-2.574
288802.000			5.148			-2.574
288901.000			5.147			-2.573
289000.000			5.147			-2.573
289101.000			5.147			-2.573
289200.000			5.147			-2.573
289300.000			5.146			-2.573
289400.000			5.148			-2.574
289500.000			5.147			-2.573
289601.000			5.146			-2.573
289701.000			5.146			-2.573
289801.000			5.147			-2.574
289902.000			5.147			-2.573
290000.000			5.147			-2.574
290100.000			5.147			-2.573
290201.000			5.147			-2.574
290300.000			5.146			-2.573
290400.000			5.147			-2.573
290501.000			5.146			-2.573
290601.000			5.145			-2.572
290701.000			5.145			-2.573
290802.000			5.146			-2.573
290900.000			5.146			-2.573
291000.000			5.147			-2.574
291101.000			5.147			-2.573
291200.000			5.147			-2.573
291300.000			5.146			-2.573
291401.000			5.146			-2.573
291501.000			5.146			-2.573
291601.000			5.146			-2.573
291702.000			5.145			-2.573
291800.000			5.145			-2.572
291900.000			5.146			-2.573
292001.000			5.146			-2.573
292100.000			5.146			-2.573
292200.000			5.146			-2.573
292301.000			5.146			-2.573
292400.000			5.146			-2.573
292502.000			5.146			-2.573
292601.000			5.146			-2.573
292700.000			5.146			-2.573
292801.000			5.146			-2.573
292900.000			5.146			-2.573
293000.000			5.147			-2.573
293101.000			5.146			-2.573
293200.000			5.145			-2.573
293300.000			5.146			-2.573
293402.000			5.146			-2.573
293501.000			5.145			-2.573
293601.000			5.146			-2.573
293701.000			5.145			-2.572
293800.000			5.146			-2.573
293900.000			5.146			-2.573
294001.000			5.146			-2.573
294100.000			5.145			-2.573
294200.000			5.145			-2.573
294302.000			5.146			-2.573
294401.000			5.146			-2.573
294501.000			5.145			-2.573
294601.000			5.145			-2.573
294700.000			5.145			-2.572
294800.000			5.145			-2.572
294901.000			5.144			-2.572
295000.000			5.144			-2.572
295100.000			5.144			-2.572
295201.000			5.146			-2.573
295301.000			5.146			-2.573
295401.000			5.146			-2.573
295501.000			5.146			-2.573
295600.000			5.146			-2.573
295700.000			5.145			-2.573
295800.000			5.145			-2.573
295900.000			5.145			-2.573
296001.000			5.145			-2.573
296100.000			5.146			-2.573
296201.000			5.145			-2.573
296302.000			5.145			-2.572
296401.000			5.145			-2.572
296500.000			5.144			-2.572
296601.000			5.144			-2.572
296700.000			5.145			-2.573
296800.000			5.145			-2.572
296901.000			5.145			-2.572
297000.000			5.145			-2.573
297100.000			5.145			-2.572
297202.000			5.145			-2.573
297301.000			5.145			-2.572
297400.000			5.145			-2.573
297501.000			5.145			-2.572
297600.000			5.145			-2.572
297700.000			5.145			-2.572
297801.000			5.145			-2.572
297900.000			5.145			-2.573
298000.000			5.145			-2.572
298102.000			5.144			-2.572
298201.000			5.144			-2.572
298300.000			5.144			-2.572
298401.000			5.144			-2.572
298500.000			5.144			-2.572
298600.000			5.144			-2.572
298701.000			5.144			-2.572
298800.000			5.144			-2.572
298900.000			5.144			-2.572
299002.000			5.145			-2.572
299101.000			5.144			-2.572
299202.000			5.144			-2.572
299300.000			5.144			-2.572
299400.000			5.144			-2.572
299501.000			5.144			-2.572
299600.000			5.145			-2.572
299700.000			5.144			-2.572
299801.000			5.144			-2.572
299900.000			5.144			-2.572
