# Acquired on 20/12/2023 16:57:11 
# SPIDER: Creep_7mm_07714532B-1
# CREEP MEASUREMENT

# time [ms]		force [N]		stiffness [N/mm]
1.000			-30.490			-4.356
100.000			-32.490			-4.641
201.000			-33.474			-4.782
300.000			-33.273			-4.753
400.000			-33.115			-4.731
501.000			-32.990			-4.713
601.000			-32.883			-4.698
701.000			-32.791			-4.684
801.000			-32.709			-4.673
900.000			-32.570			-4.653
1000.000			-32.510			-4.644
1101.000			-32.453			-4.636
1200.000			-32.400			-4.629
1301.000			-32.352			-4.622
1402.000			-32.307			-4.615
1500.000			-32.264			-4.609
1600.000			-32.224			-4.603
1701.000			-32.151			-4.593
1800.000			-32.118			-4.588
1900.000			-32.084			-4.583
2001.000			-32.052			-4.579
2101.000			-32.023			-4.575
2201.000			-31.994			-4.571
2301.000			-31.967			-4.567
2400.000			-31.914			-4.559
2500.000			-31.889			-4.556
2601.000			-31.866			-4.552
2700.000			-31.842			-4.549
2802.000			-31.821			-4.546
2901.000			-31.800			-4.543
3000.000			-31.779			-4.540
3101.000			-31.740			-4.534
3200.000			-31.720			-4.531
3300.000			-31.701			-4.529
3401.000			-31.683			-4.526
3500.000			-31.665			-4.524
3601.000			-31.648			-4.521
3702.000			-31.630			-4.519
3800.000			-31.614			-4.516
3900.000			-31.582			-4.512
4001.000			-31.566			-4.509
4100.000			-31.551			-4.507
4200.000			-31.536			-4.505
4301.000			-31.523			-4.503
4401.000			-31.509			-4.501
4501.000			-31.495			-4.499
4601.000			-31.468			-4.495
4700.000			-31.456			-4.494
4800.000			-31.443			-4.492
4901.000			-31.430			-4.490
5000.000			-31.416			-4.488
5101.000			-31.404			-4.486
5202.000			-31.394			-4.485
5300.000			-31.382			-4.483
5400.000			-31.358			-4.480
5501.000			-31.348			-4.478
5600.000			-31.337			-4.477
5700.000			-31.327			-4.475
5801.000			-31.316			-4.474
5901.000			-31.305			-4.472
6002.000			-31.293			-4.470
6100.000			-31.275			-4.468
6200.000			-31.264			-4.466
6301.000			-31.255			-4.465
6400.000			-31.244			-4.463
6500.000			-31.235			-4.462
6601.000			-31.227			-4.461
6701.000			-31.217			-4.460
6801.000			-31.199			-4.457
6901.000			-31.190			-4.456
7000.000			-31.182			-4.455
7100.000			-31.174			-4.453
7201.000			-31.164			-4.452
7300.000			-31.156			-4.451
7401.000			-31.147			-4.450
7502.000			-31.140			-4.449
7600.000			-31.124			-4.446
7700.000			-31.116			-4.445
7801.000			-31.108			-4.444
7900.000			-31.101			-4.443
8000.000			-31.093			-4.442
8101.000			-31.084			-4.441
8201.000			-31.077			-4.440
8301.000			-31.063			-4.438
8401.000			-31.055			-4.436
8500.000			-31.048			-4.435
8600.000			-31.042			-4.435
8701.000			-31.035			-4.434
8800.000			-31.028			-4.433
8901.000			-31.021			-4.432
9002.000			-31.008			-4.430
9100.000			-31.001			-4.429
9200.000			-30.994			-4.428
9300.000			-30.987			-4.427
9400.000			-30.980			-4.426
9501.000			-30.973			-4.425
9600.000			-30.968			-4.424
9701.000			-30.962			-4.423
9802.000			-30.948			-4.421
9900.000			-30.943			-4.420
10000.000			-30.937			-4.420
10101.000			-30.931			-4.419
10200.000			-30.925			-4.418
10300.000			-30.920			-4.417
10401.000			-30.914			-4.416
10501.000			-30.902			-4.415
10601.000			-30.897			-4.414
10701.000			-30.891			-4.413
10800.000			-30.885			-4.412
10900.000			-30.879			-4.411
11001.000			-30.874			-4.411
11100.000			-30.868			-4.410
11200.000			-30.856			-4.408
11302.000			-30.851			-4.407
11401.000			-30.847			-4.407
11500.000			-30.842			-4.406
11601.000			-30.836			-4.405
11700.000			-30.830			-4.404
11800.000			-30.825			-4.404
11901.000			-30.821			-4.403
12000.000			-30.810			-4.401
12101.000			-30.805			-4.401
12202.000			-30.801			-4.400
12300.000			-30.796			-4.399
12400.000			-30.790			-4.399
12500.000			-30.786			-4.398
12600.000			-30.780			-4.397
12701.000			-30.771			-4.396
12800.000			-30.766			-4.395
12901.000			-30.762			-4.395
13002.000			-30.757			-4.394
13100.000			-30.752			-4.393
13200.000			-30.748			-4.393
13301.000			-30.744			-4.392
13400.000			-30.734			-4.391
13500.000			-30.730			-4.390
13601.000			-30.725			-4.389
13701.000			-30.721			-4.389
13801.000			-30.717			-4.388
13901.000			-30.713			-4.388
14000.000			-30.707			-4.387
14100.000			-30.703			-4.386
14201.000			-30.696			-4.385
14300.000			-30.691			-4.384
14400.000			-30.686			-4.384
14502.000			-30.682			-4.383
14601.000			-30.679			-4.383
14700.000			-30.674			-4.382
14801.000			-30.670			-4.381
14900.000			-30.663			-4.380
15000.000			-30.659			-4.380
15101.000			-30.654			-4.379
15200.000			-30.651			-4.379
15301.000			-30.646			-4.378
15402.000			-30.642			-4.377
15500.000			-30.639			-4.377
15600.000			-30.630			-4.376
15700.000			-30.627			-4.375
15800.000			-30.624			-4.375
15901.000			-30.620			-4.374
16000.000			-30.615			-4.374
16101.000			-30.612			-4.373
16202.000			-30.609			-4.373
16300.000			-30.605			-4.372
16400.000			-30.597			-4.371
16501.000			-30.593			-4.370
16600.000			-30.589			-4.370
16700.000			-30.586			-4.369
16801.000			-30.582			-4.369
16901.000			-30.579			-4.368
17001.000			-30.576			-4.368
17101.000			-30.569			-4.367
17200.000			-30.564			-4.366
17300.000			-30.561			-4.366
17401.000			-30.558			-4.365
17500.000			-30.555			-4.365
17600.000			-30.551			-4.364
17702.000			-30.547			-4.364
17801.000			16.512			2.359
17900.000			-48.285			-6.898
18001.000			-30.534			-4.362
18100.000			-30.531			-4.362
18200.000			-30.528			-4.361
18301.000			-30.524			-4.361
18400.000			-30.521			-4.360
18501.000			-30.518			-4.360
18602.000			-30.511			-4.359
18700.000			-30.508			-4.358
18800.000			-30.504			-4.358
18900.000			-30.501			-4.357
19000.000			-30.498			-4.357
19101.000			-30.495			-4.356
19200.000			-30.491			-4.356
19301.000			-30.487			-4.355
19402.000			-30.483			-4.355
19500.000			-30.480			-4.354
19600.000			-30.478			-4.354
19701.000			-30.474			-4.353
19800.000			-30.471			-4.353
19900.000			-30.467			-4.352
20001.000			-30.464			-4.352
20101.000			-30.458			-4.351
20201.000			-30.456			-4.351
20301.000			-30.454			-4.351
20400.000			-30.450			-4.350
20500.000			-30.447			-4.350
20601.000			-30.444			-4.349
20700.000			-30.442			-4.349
20800.000			-30.436			-4.348
20902.000			-30.434			-4.348
21001.000			-30.430			-4.347
21100.000			-30.427			-4.347
21201.000			-30.424			-4.346
21300.000			-30.421			-4.346
21400.000			-30.417			-4.345
21501.000			-30.412			-4.345
21601.000			-30.409			-4.344
21701.000			-30.406			-4.344
21801.000			-30.405			-4.344
21900.000			-30.401			-4.343
22000.000			-30.398			-4.343
22100.000			-30.395			-4.342
22200.000			-30.393			-4.342
22301.000			-30.389			-4.341
22401.000			-30.386			-4.341
22501.000			-30.384			-4.341
22601.000			-30.381			-4.340
22700.000			-30.377			-4.340
22800.000			-30.375			-4.339
22901.000			-30.373			-4.339
23000.000			-30.366			-4.338
23100.000			-30.363			-4.338
23202.000			-30.361			-4.337
23301.000			-30.358			-4.337
23400.000			-30.356			-4.337
23501.000			-30.354			-4.336
23600.000			-30.352			-4.336
23700.000			-30.346			-4.335
23801.000			-30.344			-4.335
23901.000			-30.341			-4.334
24001.000			-30.338			-4.334
24102.000			-30.336			-4.334
24200.000			-30.334			-4.333
24300.000			-30.330			-4.333
24401.000			-30.328			-4.333
24500.000			-30.325			-4.332
24600.000			-30.322			-4.332
24702.000			-30.319			-4.331
24801.000			-30.317			-4.331
24900.000			-30.315			-4.331
25001.000			-30.313			-4.330
25100.000			-30.310			-4.330
25200.000			-30.305			-4.329
25300.000			-30.302			-4.329
25400.000			-30.300			-4.329
25502.000			-30.297			-4.328
25601.000			-30.295			-4.328
25700.000			-30.293			-4.328
25801.000			-30.290			-4.327
25900.000			-30.285			-4.326
26000.000			-30.283			-4.326
26101.000			-30.281			-4.326
26200.000			-30.279			-4.326
26301.000			-30.277			-4.325
26402.000			-30.274			-4.325
26500.000			-30.272			-4.325
26600.000			-30.270			-4.324
26701.000			-30.267			-4.324
26800.000			-30.264			-4.323
26900.000			-30.261			-4.323
27001.000			-30.259			-4.323
27101.000			-30.257			-4.322
27201.000			-30.255			-4.322
27301.000			-30.253			-4.322
27400.000			-30.248			-4.321
27500.000			-30.245			-4.321
27601.000			-30.244			-4.321
27700.000			-30.242			-4.320
27800.000			-30.239			-4.320
27902.000			-30.237			-4.320
28001.000			-30.234			-4.319
28100.000			-30.231			-4.319
28201.000			-30.229			-4.318
28300.000			-30.227			-4.318
28400.000			-30.225			-4.318
28500.000			-30.222			-4.317
28600.000			-30.221			-4.317
28702.000			-30.217			-4.317
28801.000			-30.215			-4.316
28900.000			-30.212			-4.316
29001.000			-30.210			-4.316
29100.000			-30.207			-4.315
29200.000			-30.205			-4.315
29301.000			-30.204			-4.315
29401.000			-30.203			-4.315
29501.000			-30.201			-4.314
29601.000			-30.196			-4.314
29700.000			-30.194			-4.313
29800.000			-30.192			-4.313
29901.000			-30.189			-4.313
30000.000			-30.187			-4.312
30100.000			-30.186			-4.312
30202.000			-30.183			-4.312
30301.000			-30.180			-4.311
30400.000			-30.178			-4.311
30501.000			-30.175			-4.311
30600.000			-30.173			-4.310
30700.000			-30.171			-4.310
30801.000			-30.170			-4.310
30900.000			-30.168			-4.310
31001.000			-30.166			-4.309
31102.000			-30.163			-4.309
31200.000			-30.161			-4.309
31300.000			-30.158			-4.308
31401.000			-30.156			-4.308
31500.000			-30.154			-4.308
31600.000			-30.152			-4.307
31700.000			-30.151			-4.307
31801.000			-30.149			-4.307
31902.000			-30.146			-4.307
32000.000			-30.144			-4.306
32100.000			-30.142			-4.306
32201.000			-30.139			-4.306
32300.000			-30.138			-4.305
32400.000			-30.135			-4.305
32502.000			-30.132			-4.305
32601.000			-30.130			-4.304
32700.000			-30.127			-4.304
32801.000			-30.126			-4.304
32900.000			-30.124			-4.303
33000.000			-30.123			-4.303
33101.000			-30.122			-4.303
33200.000			-30.119			-4.303
33301.000			-30.116			-4.302
33402.000			-30.113			-4.302
33500.000			-30.112			-4.302
33600.000			-30.110			-4.301
33701.000			-30.109			-4.301
33800.000			-30.106			-4.301
33900.000			-30.105			-4.301
34002.000			-30.101			-4.300
34101.000			-30.100			-4.300
34201.000			-30.098			-4.300
34301.000			-30.096			-4.299
34400.000			-30.094			-4.299
34500.000			-30.092			-4.299
34601.000			-30.091			-4.299
34700.000			-30.090			-4.299
34802.000			-30.085			-4.298
34901.000			-30.083			-4.298
35000.000			-30.082			-4.297
35101.000			-30.080			-4.297
35200.000			-30.078			-4.297
35300.000			-30.077			-4.297
35401.000			-30.075			-4.296
35500.000			-30.072			-4.296
35601.000			-30.070			-4.296
35702.000			-30.069			-4.296
35800.000			-30.068			-4.295
35900.000			-30.066			-4.295
36001.000			-30.064			-4.295
36100.000			-30.063			-4.295
36200.000			-30.059			-4.294
36301.000			-30.058			-4.294
36401.000			-30.056			-4.294
36501.000			-30.054			-4.293
36601.000			-30.053			-4.293
36700.000			-30.051			-4.293
36800.000			-30.049			-4.293
36901.000			-30.047			-4.292
37000.000			-30.043			-4.292
37100.000			-30.042			-4.292
37202.000			-30.041			-4.292
37301.000			-30.039			-4.291
37400.000			-30.037			-4.291
37501.000			-30.035			-4.291
37600.000			-30.035			-4.291
37700.000			-30.032			-4.290
37801.000			-30.030			-4.290
37901.000			-30.027			-4.290
38002.000			-30.026			-4.289
38101.000			-30.025			-4.289
38200.000			-30.023			-4.289
38301.000			-30.022			-4.289
38400.000			-30.018			-4.288
38500.000			-30.018			-4.288
38601.000			-30.016			-4.288
38701.000			-30.014			-4.288
38801.000			-30.013			-4.288
38901.000			-30.011			-4.287
39000.000			-30.010			-4.287
39100.000			-30.007			-4.287
39201.000			-30.006			-4.287
39300.000			-30.004			-4.286
39400.000			-30.002			-4.286
39502.000			-30.000			-4.286
39601.000			-29.999			-4.286
39700.000			-29.998			-4.285
39801.000			-29.997			-4.285
39900.000			-29.993			-4.285
40000.000			-29.991			-4.284
40101.000			-29.989			-4.284
40200.000			-29.988			-4.284
40301.000			-29.987			-4.284
40402.000			-29.986			-4.284
40501.000			-29.984			-4.283
40600.000			-29.981			-4.283
40701.000			-29.979			-4.283
40800.000			-29.978			-4.283
40900.000			-29.977			-4.282
41001.000			-29.976			-4.282
41100.000			-29.975			-4.282
41202.000			-29.972			-4.282
41301.000			-29.971			-4.282
41400.000			-29.968			-4.281
41501.000			-29.966			-4.281
41600.000			-29.966			-4.281
41700.000			-29.964			-4.281
41801.000			-29.962			-4.280
41900.000			-29.960			-4.280
42001.000			-29.959			-4.280
42102.000			-29.956			-4.279
42201.000			-29.955			-4.279
42300.000			-29.954			-4.279
42401.000			-29.952			-4.279
42500.000			-29.951			-4.279
42600.000			-29.949			-4.278
42701.000			-29.947			-4.278
42800.000			-29.946			-4.278
42901.000			-29.945			-4.278
43002.000			-29.943			-4.278
43100.000			-29.941			-4.277
43200.000			-29.939			-4.277
43301.000			-29.939			-4.277
43400.000			-29.938			-4.277
43500.000			-29.936			-4.277
43601.000			-29.932			-4.276
43701.000			-29.932			-4.276
43801.000			-29.931			-4.276
43901.000			-29.930			-4.276
44000.000			-29.928			-4.275
44100.000			-29.927			-4.275
44201.000			-29.925			-4.275
44300.000			-29.922			-4.275
44400.000			-29.920			-4.274
44502.000			-29.919			-4.274
44601.000			-29.918			-4.274
44701.000			-29.917			-4.274
44800.000			-29.915			-4.274
44900.000			-29.914			-4.273
45001.000			-29.913			-4.273
45100.000			-29.910			-4.273
45200.000			-29.909			-4.273
45302.000			-29.908			-4.273
45401.000			-29.906			-4.272
45501.000			-29.905			-4.272
45601.000			-29.904			-4.272
45700.000			-29.903			-4.272
45800.000			-29.901			-4.272
45901.000			-29.899			-4.271
46000.000			-29.897			-4.271
46100.000			-29.896			-4.271
46202.000			-29.894			-4.271
46301.000			-29.894			-4.271
46400.000			-29.893			-4.270
46501.000			-29.889			-4.270
46600.000			-29.888			-4.270
46700.000			-29.887			-4.270
46801.000			-29.886			-4.269
46900.000			-29.884			-4.269
47000.000			-29.883			-4.269
47102.000			-29.883			-4.269
47201.000			-29.881			-4.269
47300.000			-29.878			-4.268
47401.000			-29.877			-4.268
47500.000			-29.877			-4.268
47600.000			-29.875			-4.268
47700.000			-29.872			-4.267
47800.000			-29.870			-4.267
47902.000			-29.870			-4.267
48001.000			-29.867			-4.267
48100.000			-29.867			-4.267
48201.000			-29.865			-4.266
48300.000			-29.863			-4.266
48400.000			-29.863			-4.266
48501.000			-29.862			-4.266
48600.000			-29.860			-4.266
48701.000			-29.858			-4.265
48802.000			-29.857			-4.265
48901.000			-29.856			-4.265
49000.000			-29.854			-4.265
49101.000			-29.853			-4.265
49200.000			-29.852			-4.265
49300.000			-29.851			-4.264
49401.000			-29.850			-4.264
49500.000			-29.847			-4.264
49601.000			-29.846			-4.264
49702.000			-29.845			-4.264
49800.000			-29.843			-4.263
49900.000			-29.841			-4.263
50001.000			-29.840			-4.263
50100.000			-29.839			-4.263
50200.000			-29.837			-4.262
50301.000			-29.836			-4.262
50401.000			-29.835			-4.262
50501.000			-29.834			-4.262
50601.000			-29.833			-4.262
50700.000			-29.832			-4.262
50800.000			-29.831			-4.262
50900.000			-29.828			-4.261
51000.000			-29.828			-4.261
51101.000			-29.827			-4.261
51201.000			-29.825			-4.261
51301.000			-29.824			-4.261
51402.000			-29.823			-4.260
51500.000			-29.821			-4.260
51600.000			-29.821			-4.260
51701.000			-29.817			-4.260
51800.000			-29.816			-4.259
51900.000			-29.815			-4.259
52001.000			-29.815			-4.259
52101.000			-29.814			-4.259
52201.000			-29.812			-4.259
52301.000			-29.811			-4.259
52400.000			-29.808			-4.258
52500.000			-29.806			-4.258
52601.000			-29.805			-4.258
52700.000			-29.803			-4.258
52800.000			-29.803			-4.258
52902.000			-29.803			-4.258
53001.000			-29.801			-4.257
53100.000			-29.799			-4.257
53201.000			-29.798			-4.257
53300.000			-29.797			-4.257
53400.000			-29.795			-4.256
53501.000			-29.794			-4.256
53600.000			-29.794			-4.256
53701.000			-29.793			-4.256
53802.000			-29.791			-4.256
53901.000			-29.789			-4.256
54000.000			-29.789			-4.256
54100.000			-29.787			-4.255
54200.000			-29.786			-4.255
54301.000			-29.786			-4.255
54400.000			-29.784			-4.255
54500.000			-29.783			-4.255
54602.000			-29.780			-4.254
54701.000			-29.779			-4.254
54800.000			-29.778			-4.254
54901.000			-29.777			-4.254
55000.000			-29.776			-4.254
55100.000			-29.776			-4.254
55201.000			-29.774			-4.253
55300.000			-29.771			-4.253
55401.000			-29.770			-4.253
55502.000			-29.769			-4.253
55601.000			-29.767			-4.252
55700.000			-29.766			-4.252
55801.000			-29.765			-4.252
55900.000			-29.765			-4.252
56000.000			-29.764			-4.252
56101.000			-29.763			-4.252
56200.000			-29.762			-4.252
56301.000			-29.760			-4.251
56402.000			-29.758			-4.251
56500.000			-29.758			-4.251
56600.000			-29.757			-4.251
56701.000			-29.757			-4.251
56800.000			-29.754			-4.251
56900.000			-29.752			-4.250
57001.000			-29.751			-4.250
57101.000			-29.751			-4.250
57202.000			-29.749			-4.250
57300.000			-29.748			-4.250
57400.000			-29.748			-4.250
57501.000			-29.745			-4.249
57600.000			-29.744			-4.249
57700.000			-29.743			-4.249
57801.000			-29.742			-4.249
57901.000			-29.740			-4.249
58001.000			-29.740			-4.249
58102.000			-29.739			-4.248
58200.000			-29.737			-4.248
58300.000			-29.735			-4.248
58401.000			-29.734			-4.248
58500.000			-29.733			-4.248
58600.000			-29.733			-4.248
58701.000			-29.731			-4.247
58801.000			-29.730			-4.247
58901.000			-29.728			-4.247
59001.000			-29.728			-4.247
59100.000			-29.727			-4.247
59200.000			-29.725			-4.246
59301.000			-29.724			-4.246
59400.000			-29.723			-4.246
59500.000			-29.722			-4.246
59601.000			-29.721			-4.246
59701.000			-29.720			-4.246
59801.000			-29.718			-4.245
59901.000			-29.717			-4.245
60000.000			-29.716			-4.245
60100.000			-29.714			-4.245
60201.000			-29.714			-4.245
60300.000			-29.714			-4.245
60400.000			-29.713			-4.245
60502.000			-29.711			-4.244
60601.000			-29.710			-4.244
60701.000			-29.708			-4.244
60800.000			-29.707			-4.244
60900.000			-29.706			-4.244
61001.000			-29.706			-4.244
61100.000			-29.704			-4.243
61200.000			-29.702			-4.243
61302.000			-29.702			-4.243
61401.000			-29.700			-4.243
61500.000			-29.699			-4.243
61601.000			-29.699			-4.243
61700.000			-29.698			-4.243
61800.000			-29.696			-4.242
61901.000			-29.695			-4.242
62000.000			-29.694			-4.242
62101.000			-29.693			-4.242
62202.000			-29.692			-4.242
62301.000			-29.691			-4.242
62400.000			-29.691			-4.242
62501.000			-29.690			-4.241
62600.000			-29.689			-4.241
62700.000			-29.687			-4.241
62801.000			-29.686			-4.241
62900.000			-29.685			-4.241
63001.000			-29.684			-4.241
63102.000			-29.683			-4.240
63200.000			-29.681			-4.240
63300.000			-29.680			-4.240
63401.000			-29.678			-4.240
63500.000			-29.677			-4.240
63600.000			-29.677			-4.240
63700.000			-29.676			-4.239
63801.000			-29.675			-4.239
63902.000			-29.673			-4.239
64001.000			-29.673			-4.239
64100.000			-29.673			-4.239
64201.000			-29.670			-4.239
64300.000			-29.668			-4.238
64400.000			-29.668			-4.238
64501.000			-29.667			-4.238
64600.000			-29.667			-4.238
64701.000			-29.667			-4.238
64802.000			-29.666			-4.238
64900.000			-29.663			-4.238
65000.000			-29.662			-4.237
65101.000			-29.661			-4.237
65200.000			-29.659			-4.237
65300.000			-29.658			-4.237
65401.000			-29.659			-4.237
65501.000			-29.658			-4.237
65601.000			-29.655			-4.236
65701.000			-29.653			-4.236
65800.000			-29.653			-4.236
65900.000			-29.652			-4.236
66001.000			-29.652			-4.236
66100.000			-29.651			-4.236
66200.000			-29.650			-4.236
66301.000			-29.648			-4.235
66401.000			-29.647			-4.235
66501.000			-29.646			-4.235
66601.000			-29.646			-4.235
66700.000			-29.645			-4.235
66800.000			-29.643			-4.235
66900.000			-29.641			-4.234
67000.000			-29.641			-4.234
67101.000			-29.641			-4.234
67201.000			-29.639			-4.234
67301.000			-29.638			-4.234
67401.000			-29.638			-4.234
67500.000			-29.637			-4.234
67600.000			-29.636			-4.234
67701.000			-29.635			-4.234
67800.000			16.540			2.363
67900.000			109.851			15.693
68001.000			-29.631			-4.233
68101.000			-29.631			-4.233
68201.000			-29.630			-4.233
68301.000			-29.629			-4.233
68400.000			-29.628			-4.233
68500.000			-29.626			-4.232
68601.000			-29.626			-4.232
68700.000			-29.625			-4.232
68800.000			-29.624			-4.232
68902.000			-29.623			-4.232
69001.000			-29.622			-4.232
69100.000			-29.622			-4.232
69201.000			-29.621			-4.232
69300.000			-29.619			-4.231
69400.000			-29.618			-4.231
69501.000			-29.617			-4.231
69600.000			-29.615			-4.231
69700.000			-29.614			-4.231
69802.000			-29.614			-4.231
69901.000			-29.613			-4.230
70000.000			-29.611			-4.230
70100.000			-29.611			-4.230
70200.000			-29.611			-4.230
70301.000			-29.610			-4.230
70400.000			-29.608			-4.230
70500.000			-29.608			-4.230
70602.000			-29.607			-4.230
70701.000			-29.606			-4.229
70800.000			-29.604			-4.229
70901.000			-29.603			-4.229
71000.000			-29.602			-4.229
71100.000			-29.602			-4.229
71201.000			-29.600			-4.229
71300.000			-29.599			-4.228
71401.000			-29.600			-4.229
71502.000			-29.598			-4.228
71601.000			-29.597			-4.228
71700.000			-29.596			-4.228
71801.000			-29.595			-4.228
71900.000			-29.593			-4.228
72000.000			-29.593			-4.228
72101.000			-29.592			-4.227
72200.000			-29.592			-4.227
72301.000			-29.590			-4.227
72402.000			-29.590			-4.227
72500.000			-29.588			-4.227
72600.000			-29.587			-4.227
72701.000			-29.587			-4.227
72800.000			-29.586			-4.227
72900.000			-29.585			-4.226
73001.000			-29.584			-4.226
73101.000			-29.583			-4.226
73202.000			-29.581			-4.226
73301.000			-29.582			-4.226
73400.000			-29.580			-4.226
73501.000			-29.579			-4.226
73600.000			-29.578			-4.225
73700.000			-29.576			-4.225
73801.000			-29.576			-4.225
73900.000			-29.575			-4.225
74001.000			-29.575			-4.225
74102.000			-29.574			-4.225
74200.000			-29.574			-4.225
74300.000			-29.572			-4.225
74401.000			-29.570			-4.224
74500.000			-29.569			-4.224
74600.000			-29.569			-4.224
74701.000			-29.569			-4.224
74801.000			-29.567			-4.224
74901.000			-29.567			-4.224
75002.000			-29.566			-4.224
75100.000			-29.564			-4.223
75200.000			-29.562			-4.223
75301.000			-29.561			-4.223
75400.000			-29.561			-4.223
75500.000			-29.560			-4.223
75601.000			-29.559			-4.223
75701.000			-29.558			-4.223
75801.000			-29.559			-4.223
75901.000			-29.557			-4.222
76000.000			-29.556			-4.222
76100.000			-29.555			-4.222
76201.000			-29.554			-4.222
76300.000			-29.554			-4.222
76400.000			-29.552			-4.222
76500.000			-29.551			-4.222
76601.000			-29.552			-4.222
76702.000			-29.550			-4.221
76800.000			-29.549			-4.221
76900.000			-29.548			-4.221
77001.000			-29.548			-4.221
77100.000			-29.547			-4.221
77200.000			-29.546			-4.221
77301.000			-29.545			-4.221
77401.000			-29.544			-4.221
77501.000			-29.543			-4.220
77601.000			-29.541			-4.220
77700.000			-29.540			-4.220
77800.000			-29.541			-4.220
77901.000			-29.540			-4.220
78000.000			-29.539			-4.220
78100.000			-29.539			-4.220
78201.000			-29.538			-4.220
78301.000			-29.536			-4.219
78401.000			-29.534			-4.219
78501.000			-29.534			-4.219
78600.000			-29.534			-4.219
78700.000			-29.533			-4.219
78801.000			-29.532			-4.219
78900.000			-29.531			-4.219
79000.000			-29.530			-4.219
79102.000			-29.528			-4.218
79201.000			-29.527			-4.218
79301.000			-29.526			-4.218
79401.000			-29.526			-4.218
79500.000			-29.525			-4.218
79600.000			-29.524			-4.218
79700.000			-29.523			-4.218
79800.000			-29.522			-4.217
79901.000			-29.522			-4.217
80001.000			-29.521			-4.217
80101.000			-29.520			-4.217
80201.000			-29.519			-4.217
80300.000			-29.519			-4.217
80400.000			-29.518			-4.217
80501.000			-29.517			-4.217
80600.000			-29.516			-4.217
80700.000			-29.514			-4.216
80802.000			-29.514			-4.216
80901.000			-29.514			-4.216
81000.000			-29.513			-4.216
81101.000			-29.511			-4.216
81200.000			-29.511			-4.216
81300.000			-29.509			-4.216
81401.000			-29.509			-4.216
81500.000			-29.509			-4.216
81601.000			-29.508			-4.215
81702.000			-29.507			-4.215
81801.000			-29.506			-4.215
81900.000			-29.506			-4.215
82001.000			-29.505			-4.215
82100.000			-29.503			-4.215
82200.000			-29.503			-4.215
82301.000			-29.502			-4.215
82400.000			-29.502			-4.215
82501.000			-29.499			-4.214
82602.000			-29.498			-4.214
82700.000			-29.498			-4.214
82800.000			-29.498			-4.214
82900.000			-29.497			-4.214
83000.000			-29.497			-4.214
83101.000			-29.496			-4.214
83200.000			-29.495			-4.214
83300.000			-29.494			-4.213
83402.000			-29.492			-4.213
83501.000			-29.491			-4.213
83600.000			-29.490			-4.213
83701.000			-29.490			-4.213
83800.000			-29.490			-4.213
83900.000			-29.491			-4.213
84001.000			-29.488			-4.213
84100.000			-29.486			-4.212
84201.000			-29.486			-4.212
84302.000			-29.485			-4.212
84400.000			-29.485			-4.212
84500.000			-29.484			-4.212
84601.000			-29.483			-4.212
84700.000			-29.482			-4.212
84800.000			-29.482			-4.212
84901.000			-29.482			-4.212
85001.000			-29.480			-4.211
85101.000			-29.478			-4.211
85202.000			-29.479			-4.211
85300.000			-29.478			-4.211
85400.000			-29.476			-4.211
85501.000			-29.476			-4.211
85600.000			-29.475			-4.211
85700.000			-29.475			-4.211
85801.000			-29.474			-4.211
85901.000			-29.473			-4.210
86002.000			-29.472			-4.210
86100.000			-29.471			-4.210
86200.000			-29.470			-4.210
86301.000			-29.469			-4.210
86400.000			-29.469			-4.210
86500.000			-29.467			-4.210
86601.000			-29.466			-4.209
86701.000			-29.466			-4.209
86801.000			-29.466			-4.209
86902.000			-29.465			-4.209
87001.000			-29.463			-4.209
87100.000			-29.463			-4.209
87201.000			-29.462			-4.209
87300.000			-29.461			-4.209
87400.000			-29.460			-4.209
87501.000			-29.460			-4.209
87600.000			-29.460			-4.209
87701.000			-29.459			-4.208
87802.000			-29.457			-4.208
87900.000			-29.457			-4.208
88000.000			-29.456			-4.208
88101.000			-29.456			-4.208
88200.000			-29.456			-4.208
88300.000			-29.455			-4.208
88401.000			-29.452			-4.207
88501.000			-29.452			-4.207
88601.000			-29.452			-4.207
88702.000			-29.451			-4.207
88800.000			-29.450			-4.207
88900.000			-29.449			-4.207
89001.000			-29.448			-4.207
89100.000			-29.448			-4.207
89200.000			-29.447			-4.207
89300.000			-29.446			-4.207
89401.000			-29.446			-4.207
89502.000			-29.445			-4.206
89600.000			-29.444			-4.206
89700.000			-29.443			-4.206
89801.000			-29.443			-4.206
89900.000			-29.442			-4.206
90000.000			-29.441			-4.206
90101.000			-29.441			-4.206
90201.000			-29.441			-4.206
90301.000			-29.439			-4.206
90402.000			-29.439			-4.206
90500.000			-29.438			-4.205
90600.000			-29.436			-4.205
90701.000			-29.435			-4.205
90800.000			-29.435			-4.205
90900.000			-29.435			-4.205
91001.000			-29.434			-4.205
91101.000			-29.433			-4.205
91201.000			-29.433			-4.205
91301.000			-29.431			-4.204
91400.000			-29.430			-4.204
91500.000			-29.431			-4.204
91601.000			-29.429			-4.204
91700.000			-29.427			-4.204
91800.000			-29.427			-4.204
91902.000			-29.427			-4.204
92001.000			-29.426			-4.204
92100.000			-29.426			-4.204
92201.000			-29.425			-4.204
92300.000			-29.423			-4.203
92400.000			-29.422			-4.203
92500.000			-29.423			-4.203
92600.000			-29.422			-4.203
92701.000			-29.421			-4.203
92801.000			-29.419			-4.203
92901.000			-29.418			-4.203
93001.000			-29.418			-4.203
93100.000			-29.418			-4.203
93200.000			-29.417			-4.202
93301.000			-29.417			-4.202
93400.000			-29.417			-4.202
93500.000			-29.415			-4.202
93602.000			-29.413			-4.202
93701.000			-29.414			-4.202
93800.000			-29.413			-4.202
93901.000			-29.412			-4.202
94000.000			-29.412			-4.202
94100.000			-29.412			-4.202
94201.000			-29.411			-4.202
94300.000			-29.408			-4.201
94401.000			-29.408			-4.201
94502.000			-29.408			-4.201
94601.000			-29.406			-4.201
94700.000			-29.406			-4.201
94801.000			-29.405			-4.201
94900.000			-29.405			-4.201
95000.000			-29.404			-4.201
95101.000			-29.404			-4.201
95200.000			-29.402			-4.200
95301.000			-29.402			-4.200
95402.000			-29.401			-4.200
95500.000			-29.401			-4.200
95600.000			-29.400			-4.200
95700.000			-29.400			-4.200
95800.000			-29.397			-4.200
95901.000			-29.397			-4.200
96000.000			-29.397			-4.200
96101.000			-29.397			-4.200
96202.000			-29.395			-4.199
96301.000			-29.394			-4.199
96400.000			-29.394			-4.199
96501.000			-29.392			-4.199
96600.000			-29.392			-4.199
96700.000			-29.392			-4.199
96801.000			-29.391			-4.199
96900.000			-29.391			-4.199
97001.000			-29.390			-4.199
97102.000			-29.389			-4.198
97200.000			-29.389			-4.198
97300.000			-29.389			-4.198
97401.000			-29.387			-4.198
97500.000			-29.386			-4.198
97600.000			-29.385			-4.198
97701.000			-29.385			-4.198
97801.000			-29.384			-4.198
97901.000			-29.384			-4.198
98002.000			-29.383			-4.198
98100.000			-29.381			-4.197
98200.000			-29.381			-4.197
98301.000			-29.381			-4.197
98400.000			-29.381			-4.197
98500.000			-29.380			-4.197
98601.000			-29.379			-4.197
98701.000			-29.377			-4.197
98802.000			-29.377			-4.197
98901.000			-29.377			-4.197
99000.000			-29.376			-4.197
99101.000			-29.376			-4.197
99200.000			-29.376			-4.197
99300.000			-29.375			-4.196
99401.000			-29.373			-4.196
99500.000			-29.372			-4.196
99601.000			-29.372			-4.196
99702.000			-29.371			-4.196
99801.000			-29.369			-4.196
99900.000			-29.369			-4.196
100001.000			-29.369			-4.196
100100.000			-29.369			-4.196
100200.000			-29.368			-4.195
100301.000			-29.367			-4.195
100400.000			-29.365			-4.195
100501.000			-29.365			-4.195
100602.000			-29.364			-4.195
100700.000			-29.365			-4.195
100800.000			-29.365			-4.195
100901.000			-29.364			-4.195
101000.000			-29.363			-4.195
101100.000			-29.363			-4.195
101201.000			-29.362			-4.195
101301.000			-29.360			-4.194
101401.000			-29.359			-4.194
101502.000			-29.359			-4.194
101600.000			-29.359			-4.194
101700.000			-29.358			-4.194
101801.000			-29.358			-4.194
101900.000			-29.357			-4.194
102000.000			-29.357			-4.194
102100.000			-29.356			-4.194
102201.000			-29.355			-4.194
102302.000			-29.354			-4.193
102400.000			-29.354			-4.193
102500.000			-29.353			-4.193
102601.000			-29.352			-4.193
102700.000			-29.351			-4.193
102800.000			-29.352			-4.193
102901.000			-29.350			-4.193
103001.000			-29.349			-4.193
103101.000			-29.348			-4.193
103202.000			-29.347			-4.192
103300.000			-29.347			-4.192
103400.000			-29.346			-4.192
103501.000			-29.346			-4.192
103600.000			-29.346			-4.192
103700.000			-29.345			-4.192
103801.000			-29.344			-4.192
103901.000			-29.343			-4.192
104001.000			-29.343			-4.192
104101.000			-29.343			-4.192
104200.000			-29.343			-4.192
104300.000			-29.342			-4.192
104401.000			-29.340			-4.191
104500.000			-29.340			-4.191
104600.000			-29.338			-4.191
104702.000			-29.337			-4.191
104801.000			-29.337			-4.191
104901.000			-29.337			-4.191
105001.000			-29.337			-4.191
105100.000			-29.336			-4.191
105200.000			-29.334			-4.191
105300.000			-29.334			-4.191
105400.000			-29.334			-4.191
105501.000			-29.333			-4.190
105601.000			-29.332			-4.190
105701.000			-29.331			-4.190
105801.000			-29.330			-4.190
105900.000			-29.330			-4.190
106000.000			-29.329			-4.190
106101.000			-29.328			-4.190
106200.000			-29.328			-4.190
106300.000			-29.327			-4.190
106402.000			-29.326			-4.189
106501.000			-29.326			-4.189
106601.000			-29.326			-4.189
106701.000			-29.326			-4.189
106800.000			-29.325			-4.189
106900.000			-29.323			-4.189
107001.000			-29.323			-4.189
107100.000			-29.323			-4.189
107200.000			-29.322			-4.189
107302.000			-29.322			-4.189
107401.000			-29.321			-4.189
107500.000			-29.319			-4.188
107601.000			-29.318			-4.188
107700.000			-29.318			-4.188
107800.000			-29.318			-4.188
107901.000			-29.318			-4.188
108000.000			-29.317			-4.188
108100.000			-29.315			-4.188
108202.000			-29.315			-4.188
108301.000			-29.315			-4.188
108400.000			-29.314			-4.188
108500.000			-29.314			-4.188
108600.000			-29.313			-4.188
108701.000			-29.312			-4.187
108800.000			-29.312			-4.187
108900.000			-29.311			-4.187
109002.000			-29.309			-4.187
109101.000			-29.308			-4.187
109200.000			-29.308			-4.187
109301.000			-29.309			-4.187
109400.000			-29.308			-4.187
109500.000			-29.308			-4.187
109601.000			-29.307			-4.187
109700.000			-29.306			-4.187
109800.000			-29.306			-4.187
109902.000			-29.305			-4.186
110001.000			-29.304			-4.186
110100.000			-29.303			-4.186
110201.000			-29.302			-4.186
110300.000			-29.302			-4.186
110400.000			-29.301			-4.186
110501.000			-29.301			-4.186
110600.000			-29.300			-4.186
110701.000			-29.299			-4.186
110802.000			-29.299			-4.186
110900.000			-29.298			-4.185
111000.000			-29.299			-4.186
111101.000			-29.298			-4.185
111200.000			-29.297			-4.185
111300.000			-29.296			-4.185
111401.000			-29.295			-4.185
111500.000			-29.295			-4.185
111602.000			-29.295			-4.185
111701.000			-29.294			-4.185
111800.000			-29.294			-4.185
111901.000			-29.292			-4.185
112000.000			-29.292			-4.185
112100.000			-29.291			-4.184
112201.000			-29.290			-4.184
112300.000			-29.289			-4.184
112401.000			-29.290			-4.184
112502.000			-29.289			-4.184
112601.000			-29.289			-4.184
112700.000			-29.288			-4.184
112801.000			-29.287			-4.184
112900.000			-29.286			-4.184
113000.000			-29.287			-4.184
113101.000			-29.286			-4.184
113200.000			-29.285			-4.184
113301.000			-29.284			-4.183
113402.000			-29.282			-4.183
113500.000			-29.283			-4.183
113600.000			-29.283			-4.183
113701.000			-29.282			-4.183
113800.000			-29.281			-4.183
113900.000			-29.281			-4.183
114001.000			-29.280			-4.183
114100.000			-29.279			-4.183
114201.000			-29.279			-4.183
114302.000			-29.279			-4.183
114400.000			-29.277			-4.182
114500.000			-29.277			-4.182
114601.000			-29.277			-4.182
114700.000			-29.276			-4.182
114800.000			-29.275			-4.182
114900.000			-29.275			-4.182
115000.000			-29.274			-4.182
115102.000			-29.273			-4.182
115201.000			-29.272			-4.182
115300.000			-29.271			-4.182
115401.000			-29.271			-4.182
115500.000			-29.271			-4.182
115600.000			-29.270			-4.181
115701.000			-29.270			-4.181
115800.000			-29.270			-4.181
115901.000			-29.269			-4.181
116002.000			-29.268			-4.181
116100.000			-29.267			-4.181
116200.000			-29.267			-4.181
116301.000			-29.266			-4.181
116400.000			-29.265			-4.181
116500.000			-29.264			-4.181
116601.000			-29.264			-4.181
116700.000			-29.264			-4.181
116801.000			-29.263			-4.180
116902.000			-29.263			-4.180
117000.000			-29.262			-4.180
117100.000			-29.262			-4.180
117201.000			-29.260			-4.180
117300.000			-29.260			-4.180
117400.000			-29.259			-4.180
117501.000			-29.258			-4.180
117601.000			-29.258			-4.180
117701.000			-29.258			-4.180
117802.000			-29.257			-4.180
117900.000			-29.257			-4.180
118000.000			-29.255			-4.179
118100.000			-29.255			-4.179
118200.000			-29.255			-4.179
118301.000			-29.254			-4.179
118400.000			-29.255			-4.179
118501.000			-29.254			-4.179
118602.000			-29.252			-4.179
118701.000			-29.251			-4.179
118800.000			-29.251			-4.179
118901.000			-29.251			-4.179
119000.000			-29.251			-4.179
119100.000			-29.250			-4.179
119201.000			-29.249			-4.178
119300.000			-29.249			-4.178
119401.000			-29.248			-4.178
119502.000			-29.248			-4.178
119600.000			-29.247			-4.178
119700.000			-29.246			-4.178
119801.000			-29.245			-4.178
119900.000			-29.245			-4.178
120000.000			-29.244			-4.178
120101.000			-29.244			-4.178
120200.000			-29.243			-4.178
120301.000			-29.242			-4.177
120402.000			-29.242			-4.177
120500.000			-29.243			-4.178
120600.000			-29.242			-4.177
120701.000			-29.241			-4.177
120800.000			-29.239			-4.177
120900.000			-29.239			-4.177
121001.000			-29.239			-4.177
121101.000			-29.238			-4.177
121202.000			-29.238			-4.177
121300.000			-29.237			-4.177
121400.000			-29.236			-4.177
121501.000			-29.236			-4.177
121600.000			-29.235			-4.176
121700.000			-29.235			-4.176
121801.000			-29.234			-4.176
121901.000			-29.234			-4.176
122001.000			-29.233			-4.176
122101.000			-29.232			-4.176
122200.000			-29.232			-4.176
122300.000			-29.231			-4.176
122401.000			-29.231			-4.176
122500.000			-29.231			-4.176
122600.000			-29.230			-4.176
122701.000			-29.229			-4.176
122801.000			-29.229			-4.176
122901.000			-29.228			-4.175
123001.000			-29.227			-4.175
123100.000			-29.228			-4.175
123200.000			-29.227			-4.175
123301.000			-29.226			-4.175
123400.000			-29.225			-4.175
123500.000			-29.225			-4.175
123602.000			-29.224			-4.175
123701.000			-29.224			-4.175
123800.000			-29.223			-4.175
123901.000			-29.222			-4.175
124000.000			-29.222			-4.175
124100.000			-29.222			-4.175
124201.000			-29.220			-4.174
124300.000			-29.220			-4.174
124400.000			-29.220			-4.174
124502.000			-29.220			-4.174
124601.000			-29.219			-4.174
124701.000			-29.218			-4.174
124800.000			-29.217			-4.174
124900.000			-29.217			-4.174
125001.000			-29.216			-4.174
125100.000			-29.216			-4.174
125200.000			-29.216			-4.174
125302.000			-29.215			-4.174
125401.000			-29.215			-4.174
125500.000			-29.214			-4.173
125601.000			-29.212			-4.173
125700.000			-29.212			-4.173
125800.000			-29.211			-4.173
125901.000			-29.211			-4.173
126000.000			-29.212			-4.173
126100.000			-29.211			-4.173
126202.000			-29.209			-4.173
126301.000			-29.208			-4.173
126400.000			-29.209			-4.173
126501.000			-29.209			-4.173
126600.000			-29.207			-4.172
126700.000			-29.207			-4.172
126801.000			-29.206			-4.172
126900.000			-29.206			-4.172
127001.000			-29.204			-4.172
127102.000			-29.205			-4.172
127201.000			-29.205			-4.172
127300.000			-29.203			-4.172
127401.000			-29.202			-4.172
127500.000			-29.203			-4.172
127600.000			-29.203			-4.172
127700.000			-29.202			-4.172
127800.000			-29.201			-4.172
127902.000			-29.201			-4.172
128001.000			-29.201			-4.172
128100.000			-29.200			-4.171
128201.000			-29.200			-4.171
128300.000			-29.199			-4.171
128400.000			-29.198			-4.171
128501.000			-29.197			-4.171
128600.000			-29.197			-4.171
128700.000			-29.197			-4.171
128802.000			-29.196			-4.171
128901.000			-29.195			-4.171
129000.000			-29.194			-4.171
129101.000			-29.195			-4.171
129200.000			-29.195			-4.171
129300.000			-29.194			-4.171
129401.000			-29.193			-4.170
129500.000			-29.192			-4.170
129600.000			-29.191			-4.170
129702.000			-29.191			-4.170
129801.000			-29.191			-4.170
129900.000			-29.191			-4.170
130001.000			-29.190			-4.170
130100.000			-29.188			-4.170
130200.000			-29.189			-4.170
130301.000			-29.188			-4.170
130400.000			-29.187			-4.170
130501.000			-29.187			-4.170
130602.000			-29.187			-4.170
130701.000			-29.186			-4.169
130800.000			-29.186			-4.169
130900.000			-29.186			-4.169
131000.000			-29.185			-4.169
131101.000			-29.184			-4.169
131200.000			-29.184			-4.169
131300.000			-29.183			-4.169
131402.000			-29.182			-4.169
131501.000			-29.182			-4.169
131601.000			-29.182			-4.169
131701.000			-29.181			-4.169
131800.000			-29.180			-4.169
131900.000			-29.181			-4.169
132001.000			-29.180			-4.169
132100.000			-29.179			-4.168
132200.000			-29.179			-4.168
132301.000			-29.179			-4.168
132401.000			-29.178			-4.168
132501.000			-29.178			-4.168
132601.000			-29.177			-4.168
132700.000			-29.176			-4.168
132800.000			-29.176			-4.168
132901.000			-29.175			-4.168
133000.000			-29.175			-4.168
133100.000			-29.175			-4.168
133201.000			-29.173			-4.168
133301.000			-29.173			-4.168
133401.000			-29.172			-4.167
133502.000			-29.172			-4.167
133600.000			-29.172			-4.167
133700.000			-29.172			-4.167
133801.000			-29.171			-4.167
133900.000			-29.170			-4.167
134000.000			-29.169			-4.167
134100.000			-29.169			-4.167
134200.000			-29.169			-4.167
134302.000			-29.169			-4.167
134401.000			-29.169			-4.167
134500.000			-29.168			-4.167
134601.000			-29.168			-4.167
134700.000			-29.166			-4.167
134800.000			-29.165			-4.166
134901.000			-29.165			-4.166
135000.000			-29.165			-4.166
135100.000			-29.164			-4.166
135202.000			-29.163			-4.166
135301.000			-29.163			-4.166
135401.000			-29.161			-4.166
135501.000			-29.161			-4.166
135600.000			-29.162			-4.166
135700.000			-29.162			-4.166
135801.000			-29.162			-4.166
135900.000			-29.160			-4.166
136000.000			-29.160			-4.166
136101.000			-29.159			-4.166
136201.000			-29.158			-4.165
136301.000			-29.158			-4.165
136401.000			-29.157			-4.165
136500.000			-29.156			-4.165
136600.000			-29.156			-4.165
136701.000			-29.156			-4.165
136800.000			-29.155			-4.165
136900.000			-29.155			-4.165
137001.000			-29.154			-4.165
137101.000			-29.153			-4.165
137202.000			-29.153			-4.165
137301.000			-29.152			-4.165
137400.000			-29.152			-4.165
137501.000			-29.152			-4.165
137600.000			-29.152			-4.165
137700.000			-29.150			-4.164
137801.000			-29.150			-4.164
137900.000			-29.150			-4.164
138000.000			-29.148			-4.164
138102.000			-29.148			-4.164
138201.000			-29.149			-4.164
138300.000			-29.149			-4.164
138401.000			-29.148			-4.164
138500.000			-29.147			-4.164
138600.000			-29.147			-4.164
138701.000			-29.147			-4.164
138800.000			-29.146			-4.164
138900.000			-29.146			-4.164
139002.000			-29.144			-4.163
139101.000			-29.144			-4.163
139201.000			-29.144			-4.163
139301.000			-29.144			-4.163
139400.000			-29.142			-4.163
139500.000			-29.142			-4.163
139601.000			-29.141			-4.163
139700.000			-29.141			-4.163
139800.000			-29.141			-4.163
139901.000			-29.141			-4.163
140001.000			-29.141			-4.163
140101.000			-29.141			-4.163
140201.000			-29.140			-4.163
140300.000			-29.138			-4.163
140400.000			-29.137			-4.162
140500.000			-29.137			-4.162
140600.000			-29.137			-4.162
140701.000			-29.137			-4.162
140800.000			-29.136			-4.162
140901.000			-29.136			-4.162
141002.000			-29.135			-4.162
141101.000			-29.134			-4.162
141200.000			-29.134			-4.162
141301.000			-29.134			-4.162
141400.000			-29.134			-4.162
141500.000			-29.133			-4.162
141601.000			-29.131			-4.162
141700.000			-29.132			-4.162
141801.000			-29.131			-4.162
141902.000			-29.130			-4.161
142001.000			-29.129			-4.161
142100.000			-29.128			-4.161
142201.000			-29.129			-4.161
142300.000			-29.128			-4.161
142400.000			-29.129			-4.161
142501.000			-29.127			-4.161
142600.000			-29.126			-4.161
142700.000			-29.127			-4.161
142802.000			-29.126			-4.161
142901.000			-29.126			-4.161
143000.000			-29.125			-4.161
143101.000			-29.124			-4.161
143200.000			-29.124			-4.161
143300.000			-29.123			-4.160
143401.000			-29.124			-4.161
143500.000			-29.123			-4.160
143600.000			-29.122			-4.160
143702.000			-29.121			-4.160
143801.000			-29.120			-4.160
143901.000			-29.121			-4.160
144000.000			-29.120			-4.160
144100.000			-29.120			-4.160
144201.000			-29.119			-4.160
144300.000			-29.118			-4.160
144400.000			-29.119			-4.160
144501.000			-29.118			-4.160
144601.000			-29.117			-4.160
144701.000			-29.117			-4.160
144802.000			-29.116			-4.159
144900.000			-29.116			-4.159
145000.000			-29.115			-4.159
145101.000			-29.116			-4.159
145200.000			-29.114			-4.159
145300.000			-29.113			-4.159
145401.000			-29.114			-4.159
145500.000			-29.114			-4.159
145601.000			-29.113			-4.159
145702.000			-29.112			-4.159
145800.000			-29.111			-4.159
145900.000			-29.111			-4.159
146001.000			-29.111			-4.159
146100.000			-29.112			-4.159
146200.000			-29.111			-4.159
146301.000			-29.109			-4.158
146400.000			-29.108			-4.158
146501.000			-29.108			-4.158
146602.000			-29.108			-4.158
146700.000			-29.108			-4.158
146800.000			-29.107			-4.158
146900.000			-29.107			-4.158
147000.000			-29.107			-4.158
147101.000			-29.105			-4.158
147200.000			-29.105			-4.158
147300.000			-29.105			-4.158
147402.000			-29.104			-4.158
147501.000			-29.104			-4.158
147601.000			-29.102			-4.157
147701.000			-29.102			-4.157
147800.000			-29.102			-4.157
147900.000			-29.102			-4.157
148001.000			-29.101			-4.157
148100.000			-29.100			-4.157
148200.000			-29.102			-4.157
148302.000			-29.102			-4.157
148401.000			-29.100			-4.157
148501.000			-29.099			-4.157
148601.000			-29.099			-4.157
148700.000			-29.098			-4.157
148800.000			-29.097			-4.157
148901.000			-29.097			-4.157
149000.000			-29.097			-4.157
149100.000			-29.096			-4.157
149201.000			-29.096			-4.157
149301.000			-29.095			-4.156
149401.000			-29.095			-4.156
149502.000			-29.094			-4.156
149600.000			-29.094			-4.156
149700.000			-29.093			-4.156
149801.000			-29.093			-4.156
149900.000			-29.093			-4.156
150000.000			-29.093			-4.156
150100.000			-29.092			-4.156
150200.000			-29.091			-4.156
150302.000			-29.091			-4.156
150401.000			-29.091			-4.156
150501.000			-29.091			-4.156
150601.000			-29.091			-4.156
150700.000			-29.090			-4.156
150800.000			-29.088			-4.155
150901.000			-29.087			-4.155
151000.000			-29.088			-4.155
151100.000			-29.088			-4.155
151201.000			-29.087			-4.155
151301.000			-29.087			-4.155
151401.000			-29.087			-4.155
151501.000			-29.087			-4.155
151600.000			-29.086			-4.155
151700.000			-29.084			-4.155
151801.000			-29.085			-4.155
151900.000			-29.084			-4.155
152000.000			-29.083			-4.155
152101.000			-29.083			-4.155
152201.000			-29.083			-4.155
152301.000			-29.083			-4.155
152401.000			-29.083			-4.155
152500.000			-29.082			-4.155
152600.000			-29.081			-4.154
152701.000			-29.081			-4.154
152800.000			-29.079			-4.154
152900.000			-29.079			-4.154
153001.000			-29.079			-4.154
153100.000			-29.079			-4.154
153202.000			-29.078			-4.154
153301.000			-29.078			-4.154
153400.000			-29.078			-4.154
153501.000			-29.077			-4.154
153600.000			-29.076			-4.154
153700.000			-29.075			-4.154
153801.000			-29.075			-4.154
153900.000			-29.074			-4.153
154000.000			-29.073			-4.153
154102.000			-29.074			-4.153
154201.000			-29.074			-4.153
154301.000			-29.074			-4.153
154401.000			-29.073			-4.153
154500.000			-29.073			-4.153
154600.000			-29.072			-4.153
154701.000			-29.071			-4.153
154800.000			-29.071			-4.153
154900.000			-29.070			-4.153
155001.000			-29.070			-4.153
155101.000			-29.070			-4.153
155201.000			-29.069			-4.153
155301.000			-29.069			-4.153
155400.000			-29.068			-4.153
155500.000			-29.067			-4.152
155601.000			-29.067			-4.152
155700.000			-29.067			-4.152
155800.000			-29.066			-4.152
155901.000			-29.065			-4.152
156001.000			-29.066			-4.152
156101.000			-29.066			-4.152
156202.000			-29.064			-4.152
156300.000			-29.064			-4.152
156400.000			-29.064			-4.152
156500.000			-29.064			-4.152
156600.000			-29.063			-4.152
156701.000			-29.062			-4.152
156800.000			-29.062			-4.152
156900.000			-29.061			-4.152
157002.000			-29.060			-4.151
157101.000			-29.060			-4.151
157200.000			-29.059			-4.151
157301.000			-29.059			-4.151
157400.000			-29.059			-4.151
157500.000			-29.059			-4.151
157601.000			-29.059			-4.151
157700.000			-29.058			-4.151
157800.000			-29.058			-4.151
157902.000			-29.057			-4.151
158001.000			-29.057			-4.151
158101.000			-29.056			-4.151
158201.000			-29.056			-4.151
158300.000			-29.055			-4.151
158400.000			-29.055			-4.151
158501.000			-29.054			-4.151
158600.000			-29.055			-4.151
158700.000			-29.053			-4.150
158801.000			-29.053			-4.150
158901.000			-29.052			-4.150
159001.000			-29.052			-4.150
159101.000			-29.051			-4.150
159200.000			-29.052			-4.150
159300.000			-29.051			-4.150
159401.000			-29.050			-4.150
159500.000			-29.050			-4.150
159600.000			-29.048			-4.150
159700.000			-29.048			-4.150
159800.000			-29.048			-4.150
159902.000			-29.048			-4.150
160001.000			-29.048			-4.150
160100.000			-29.048			-4.150
160201.000			-29.048			-4.150
160300.000			-29.047			-4.150
160400.000			-29.046			-4.149
160501.000			-29.045			-4.149
160600.000			-29.044			-4.149
160700.000			-29.044			-4.149
160802.000			-29.044			-4.149
160901.000			-29.043			-4.149
161001.000			-29.043			-4.149
161101.000			-29.043			-4.149
161200.000			-29.043			-4.149
161300.000			-29.043			-4.149
161401.000			-29.043			-4.149
161500.000			-29.041			-4.149
161600.000			-29.040			-4.149
161702.000			-29.041			-4.149
161801.000			-29.041			-4.149
161901.000			-29.040			-4.149
162001.000			-29.040			-4.149
162100.000			-29.039			-4.148
162200.000			-29.038			-4.148
162301.000			-29.037			-4.148
162400.000			-29.037			-4.148
162500.000			-29.036			-4.148
162601.000			-29.036			-4.148
162701.000			-29.035			-4.148
162802.000			-29.036			-4.148
162901.000			-29.036			-4.148
163000.000			-29.036			-4.148
163101.000			-29.035			-4.148
163200.000			-29.034			-4.148
163300.000			-29.032			-4.147
163401.000			-29.033			-4.148
163500.000			-29.032			-4.147
163601.000			-29.032			-4.147
163702.000			-29.032			-4.147
163801.000			-29.031			-4.147
163900.000			-29.031			-4.147
164001.000			-29.030			-4.147
164100.000			-29.030			-4.147
164200.000			-29.030			-4.147
164301.000			-29.029			-4.147
164400.000			-29.028			-4.147
164500.000			-29.028			-4.147
164602.000			-29.028			-4.147
164701.000			-29.026			-4.147
164800.000			-29.027			-4.147
164901.000			-29.027			-4.147
165000.000			-29.028			-4.147
165100.000			-29.028			-4.147
165201.000			-29.026			-4.147
165300.000			-29.026			-4.147
165400.000			-29.025			-4.146
165502.000			-29.024			-4.146
165601.000			-29.023			-4.146
165701.000			-29.023			-4.146
165801.000			-29.023			-4.146
165900.000			-29.023			-4.146
166000.000			-29.022			-4.146
166100.000			-29.021			-4.146
166200.000			-29.022			-4.146
166301.000			-29.021			-4.146
166400.000			-29.020			-4.146
166501.000			-29.021			-4.146
166602.000			-29.021			-4.146
166700.000			-29.020			-4.146
166800.000			-29.019			-4.146
166901.000			-29.019			-4.146
167000.000			-29.019			-4.146
167100.000			-29.018			-4.145
167201.000			-29.017			-4.145
167300.000			-29.017			-4.145
167401.000			-29.017			-4.145
167502.000			-29.016			-4.145
167601.000			-29.016			-4.145
167700.000			-29.015			-4.145
167801.000			-29.015			-4.145
167900.000			-29.015			-4.145
168000.000			-29.015			-4.145
168101.000			-29.013			-4.145
168200.000			-29.012			-4.145
168300.000			-29.013			-4.145
168402.000			-29.012			-4.145
168501.000			-29.013			-4.145
168600.000			-29.012			-4.145
168701.000			-29.011			-4.144
168800.000			-29.010			-4.144
168900.000			-29.010			-4.144
169001.000			-29.010			-4.144
169100.000			-29.010			-4.144
169200.000			-29.009			-4.144
169302.000			-29.008			-4.144
169401.000			-29.008			-4.144
169502.000			-29.008			-4.144
169600.000			-29.009			-4.144
169700.000			-29.008			-4.144
169801.000			-29.007			-4.144
169900.000			-29.006			-4.144
170000.000			-29.006			-4.144
170101.000			-29.006			-4.144
170200.000			-29.005			-4.144
170301.000			-29.004			-4.143
170402.000			-29.004			-4.143
170500.000			-29.002			-4.143
170600.000			-29.003			-4.143
170701.000			-29.002			-4.143
170800.000			-29.002			-4.143
170900.000			-29.002			-4.143
171001.000			-29.002			-4.143
171100.000			-29.002			-4.143
171201.000			-29.001			-4.143
171302.000			-29.001			-4.143
171401.000			-29.000			-4.143
171500.000			-28.998			-4.143
171601.000			-28.998			-4.143
171700.000			-28.998			-4.143
171800.000			-28.999			-4.143
171901.000			-28.998			-4.143
172000.000			-28.996			-4.142
172100.000			-28.997			-4.142
172202.000			-28.996			-4.142
172301.000			-28.996			-4.142
172402.000			-28.996			-4.142
172500.000			-28.995			-4.142
172600.000			-28.995			-4.142
172701.000			-28.995			-4.142
172800.000			-28.994			-4.142
172900.000			-28.994			-4.142
173001.000			-28.994			-4.142
173100.000			-28.993			-4.142
173200.000			-28.993			-4.142
173302.000			-28.993			-4.142
173401.000			-28.993			-4.142
173500.000			-28.991			-4.142
173601.000			-28.991			-4.142
173700.000			-28.991			-4.142
173800.000			-28.992			-4.142
173901.000			-28.991			-4.142
174000.000			-28.989			-4.141
174100.000			-28.990			-4.141
174201.000			-28.990			-4.141
174301.000			-28.989			-4.141
174401.000			-28.989			-4.141
174501.000			-28.988			-4.141
174600.000			-28.987			-4.141
174700.000			-28.987			-4.141
174801.000			-28.986			-4.141
174900.000			-28.986			-4.141
175000.000			-28.985			-4.141
175101.000			-28.985			-4.141
175200.000			-28.986			-4.141
175301.000			-28.985			-4.141
175402.000			-28.984			-4.141
175501.000			-28.982			-4.140
175600.000			-28.982			-4.140
175700.000			-28.983			-4.140
175800.000			-28.982			-4.140
175901.000			-28.982			-4.140
176000.000			-28.982			-4.140
176100.000			-28.982			-4.140
176201.000			-28.982			-4.140
176301.000			-28.981			-4.140
176401.000			-28.981			-4.140
176502.000			-28.980			-4.140
176600.000			-28.978			-4.140
176700.000			-28.979			-4.140
176801.000			-28.979			-4.140
176900.000			-28.978			-4.140
177000.000			-28.977			-4.140
177101.000			-28.977			-4.140
177200.000			-28.977			-4.140
177301.000			-28.975			-4.139
177402.000			-28.975			-4.139
177501.000			-28.975			-4.139
177600.000			-28.976			-4.139
177701.000			-28.976			-4.139
177800.000			-28.975			-4.139
177900.000			-28.975			-4.139
178001.000			-28.973			-4.139
178100.000			-28.973			-4.139
178200.000			-28.972			-4.139
178301.000			-28.972			-4.139
178401.000			-28.973			-4.139
178501.000			-28.972			-4.139
178601.000			-28.972			-4.139
178700.000			-28.972			-4.139
178800.000			-28.971			-4.139
178900.000			-28.970			-4.139
179000.000			-28.970			-4.139
179101.000			-28.970			-4.139
179200.000			-28.969			-4.138
179300.000			-28.968			-4.138
179402.000			-28.968			-4.138
179501.000			-28.968			-4.138
179601.000			-28.967			-4.138
179701.000			-28.967			-4.138
179800.000			-28.967			-4.138
179900.000			-28.966			-4.138
180001.000			-28.966			-4.138
180100.000			-28.966			-4.138
180200.000			-28.966			-4.138
180301.000			-28.965			-4.138
180401.000			-28.966			-4.138
180501.000			-28.965			-4.138
180602.000			-28.964			-4.138
180700.000			-28.964			-4.138
180800.000			-28.964			-4.138
180901.000			-28.964			-4.138
181000.000			-28.963			-4.138
181100.000			-28.962			-4.137
181201.000			-28.962			-4.137
181300.000			-28.960			-4.137
181401.000			-28.960			-4.137
181502.000			-28.960			-4.137
181601.000			-28.961			-4.137
181700.000			-28.960			-4.137
181801.000			-28.960			-4.137
181900.000			-28.959			-4.137
182000.000			-28.959			-4.137
182100.000			-28.960			-4.137
182200.000			-28.959			-4.137
182301.000			-28.958			-4.137
182401.000			-28.958			-4.137
182501.000			-28.958			-4.137
182602.000			-28.958			-4.137
182700.000			-28.958			-4.137
182800.000			-28.956			-4.137
182901.000			-28.956			-4.137
183000.000			-28.956			-4.137
183100.000			-28.954			-4.136
183201.000			-28.954			-4.136
183300.000			-28.954			-4.136
183401.000			-28.953			-4.136
183502.000			-28.954			-4.136
183601.000			-28.954			-4.136
183700.000			-28.953			-4.136
183801.000			-28.952			-4.136
183900.000			-28.952			-4.136
184000.000			-28.952			-4.136
184101.000			-28.950			-4.136
184200.000			-28.951			-4.136
184300.000			-28.950			-4.136
184402.000			-28.950			-4.136
184501.000			-28.950			-4.136
184601.000			-28.948			-4.135
184701.000			-28.949			-4.136
184800.000			-28.949			-4.136
184900.000			-28.949			-4.136
185001.000			-28.948			-4.135
185100.000			-28.947			-4.135
185200.000			-28.947			-4.135
185300.000			-28.946			-4.135
185401.000			-28.947			-4.135
185502.000			-28.946			-4.135
185601.000			-28.946			-4.135
185700.000			-28.946			-4.135
185801.000			-28.944			-4.135
185900.000			-28.944			-4.135
186000.000			-28.944			-4.135
186101.000			-28.943			-4.135
186200.000			-28.943			-4.135
186300.000			-28.943			-4.135
186401.000			-28.943			-4.135
186501.000			-28.943			-4.135
186601.000			-28.942			-4.135
186701.000			-28.941			-4.134
186800.000			-28.941			-4.134
186900.000			-28.941			-4.134
187001.000			-28.940			-4.134
187100.000			-28.940			-4.134
187200.000			-28.941			-4.134
187301.000			-28.940			-4.134
187401.000			-28.939			-4.134
187501.000			-28.939			-4.134
187602.000			-28.940			-4.134
187700.000			-28.938			-4.134
187800.000			-28.937			-4.134
187901.000			-28.936			-4.134
188000.000			-28.937			-4.134
188100.000			-28.937			-4.134
188201.000			-28.936			-4.134
188300.000			-28.937			-4.134
188400.000			-28.936			-4.134
188502.000			-28.936			-4.134
188601.000			-28.935			-4.134
188702.000			-28.934			-4.133
188800.000			-28.934			-4.133
188900.000			-28.933			-4.133
189001.000			-28.933			-4.133
189100.000			-28.933			-4.133
189200.000			-28.932			-4.133
189301.000			-28.932			-4.133
189400.000			-28.931			-4.133
189501.000			-28.931			-4.133
189602.000			-28.932			-4.133
189701.000			-28.930			-4.133
189800.000			-28.930			-4.133
189901.000			-28.930			-4.133
190000.000			-28.930			-4.133
190100.000			-28.929			-4.133
190201.000			-28.929			-4.133
190300.000			-28.929			-4.133
190400.000			-28.928			-4.133
190502.000			-28.928			-4.133
190601.000			-28.927			-4.132
190701.000			-28.927			-4.132
190801.000			-28.926			-4.132
190900.000			-28.926			-4.132
191000.000			-28.925			-4.132
191101.000			-28.926			-4.132
191200.000			-28.925			-4.132
191300.000			-28.925			-4.132
191401.000			-28.925			-4.132
191501.000			-28.923			-4.132
191602.000			-28.924			-4.132
191700.000			-28.924			-4.132
191800.000			-28.923			-4.132
191901.000			-28.922			-4.132
192000.000			-28.923			-4.132
192100.000			-28.923			-4.132
192201.000			-28.922			-4.132
192300.000			-28.921			-4.132
192400.000			-28.920			-4.131
192502.000			-28.920			-4.131
192601.000			-28.920			-4.131
192700.000			-28.920			-4.131
192801.000			-28.920			-4.131
192900.000			-28.919			-4.131
193000.000			-28.918			-4.131
193101.000			-28.918			-4.131
193200.000			-28.917			-4.131
193300.000			-28.918			-4.131
193402.000			-28.918			-4.131
193501.000			-28.917			-4.131
193601.000			-28.917			-4.131
193701.000			-28.916			-4.131
193800.000			-28.916			-4.131
193900.000			-28.914			-4.131
194001.000			-28.914			-4.131
194100.000			-28.915			-4.131
194200.000			-28.914			-4.131
194301.000			-28.914			-4.131
194401.000			-28.914			-4.131
194501.000			-28.913			-4.130
194602.000			-28.912			-4.130
194700.000			-28.913			-4.130
194800.000			-28.911			-4.130
194900.000			-28.911			-4.130
195000.000			-28.912			-4.130
195101.000			-28.912			-4.130
195200.000			-28.911			-4.130
195300.000			-28.911			-4.130
195402.000			-28.910			-4.130
195501.000			-28.910			-4.130
195601.000			-28.910			-4.130
195701.000			-28.908			-4.130
195800.000			-28.909			-4.130
195900.000			-28.909			-4.130
196001.000			-28.909			-4.130
196100.000			-28.908			-4.130
196200.000			-28.907			-4.130
196301.000			-28.907			-4.130
196401.000			-28.907			-4.130
196501.000			-28.906			-4.129
196602.000			-28.906			-4.129
196700.000			-28.905			-4.129
196800.000			-28.904			-4.129
196901.000			-28.905			-4.129
197000.000			-28.904			-4.129
197100.000			-28.903			-4.129
197201.000			-28.903			-4.129
197300.000			-28.903			-4.129
197401.000			-28.902			-4.129
197502.000			-28.903			-4.129
197601.000			-28.903			-4.129
197700.000			-28.902			-4.129
197801.000			-28.902			-4.129
197900.000			-28.901			-4.129
198000.000			-28.900			-4.129
198100.000			-28.901			-4.129
198200.000			-28.901			-4.129
198301.000			-28.900			-4.129
198401.000			-28.899			-4.128
198501.000			-28.900			-4.129
198602.000			-28.899			-4.128
198700.000			-28.898			-4.128
198800.000			-28.899			-4.128
198901.000			-28.898			-4.128
199000.000			-28.897			-4.128
199100.000			-28.897			-4.128
199201.000			-28.897			-4.128
199300.000			-28.896			-4.128
199400.000			-28.896			-4.128
199502.000			-28.895			-4.128
199601.000			-28.895			-4.128
199701.000			-28.895			-4.128
199801.000			-28.896			-4.128
199900.000			-28.894			-4.128
200000.000			-28.893			-4.128
200101.000			-28.894			-4.128
200200.000			-28.893			-4.128
200300.000			-28.893			-4.128
200401.000			-28.892			-4.127
200501.000			-28.892			-4.127
200601.000			-28.891			-4.127
200702.000			-28.892			-4.127
200800.000			-28.891			-4.127
200900.000			-28.890			-4.127
201001.000			-28.890			-4.127
201100.000			-28.891			-4.127
201200.000			-28.890			-4.127
201300.000			-28.890			-4.127
201400.000			-28.890			-4.127
201502.000			-28.889			-4.127
201601.000			-28.888			-4.127
201700.000			-28.889			-4.127
201801.000			-28.889			-4.127
201900.000			-28.888			-4.127
202000.000			-28.888			-4.127
202101.000			-28.887			-4.127
202200.000			-28.886			-4.127
202300.000			-28.885			-4.126
202402.000			-28.885			-4.126
202501.000			-28.885			-4.126
202601.000			-28.885			-4.126
202701.000			-28.885			-4.126
202800.000			-28.885			-4.126
202900.000			-28.885			-4.126
203001.000			-28.884			-4.126
203100.000			-28.884			-4.126
203200.000			-28.884			-4.126
203301.000			-28.883			-4.126
203401.000			-28.884			-4.126
203501.000			-28.883			-4.126
203602.000			-28.882			-4.126
203700.000			-28.882			-4.126
203800.000			-28.881			-4.126
203901.000			-28.880			-4.126
204000.000			-28.880			-4.126
204100.000			-28.880			-4.126
204201.000			-28.880			-4.126
204300.000			-28.880			-4.126
204402.000			-28.878			-4.125
204501.000			-28.878			-4.125
204601.000			-28.878			-4.125
204701.000			-28.878			-4.125
204800.000			-28.878			-4.125
204900.000			-28.878			-4.125
205001.000			-28.877			-4.125
205100.000			-28.877			-4.125
205200.000			-28.877			-4.125
205301.000			-28.877			-4.125
205401.000			-28.875			-4.125
205501.000			-28.875			-4.125
205602.000			-28.876			-4.125
205700.000			-28.875			-4.125
205800.000			-28.874			-4.125
205901.000			-28.874			-4.125
206000.000			-28.873			-4.125
206100.000			-28.874			-4.125
206201.000			-28.873			-4.125
206300.000			-28.872			-4.125
206401.000			-28.873			-4.125
206502.000			-28.871			-4.124
206600.000			-28.871			-4.124
206700.000			-28.872			-4.125
206801.000			-28.871			-4.124
206900.000			-28.871			-4.124
207000.000			-28.871			-4.124
207101.000			-28.870			-4.124
207200.000			-28.870			-4.124
207301.000			-28.869			-4.124
207402.000			-28.868			-4.124
207501.000			-28.869			-4.124
207600.000			-28.870			-4.124
207700.000			-28.869			-4.124
207800.000			-28.867			-4.124
207901.000			-28.868			-4.124
208000.000			-28.868			-4.124
208100.000			-28.866			-4.124
208201.000			-28.866			-4.124
208301.000			-28.866			-4.124
208401.000			-28.866			-4.124
208502.000			-28.865			-4.124
208600.000			-28.865			-4.124
208700.000			-28.865			-4.124
208801.000			-28.865			-4.124
208900.000			-28.864			-4.123
209000.000			-28.863			-4.123
209101.000			-28.863			-4.123
209200.000			-28.863			-4.123
209301.000			-28.863			-4.123
209402.000			-28.862			-4.123
209501.000			-28.862			-4.123
209600.000			-28.862			-4.123
209701.000			-28.861			-4.123
209800.000			-28.861			-4.123
209900.000			-28.860			-4.123
210001.000			-28.861			-4.123
210100.000			-28.860			-4.123
210200.000			-28.860			-4.123
210302.000			-28.859			-4.123
210401.000			-28.859			-4.123
210500.000			-28.860			-4.123
210601.000			-28.859			-4.123
210700.000			-28.858			-4.123
210800.000			-28.859			-4.123
210900.000			-28.857			-4.122
211000.000			-28.857			-4.122
211101.000			-28.857			-4.122
211201.000			-28.857			-4.122
211301.000			-28.856			-4.122
211402.000			-28.856			-4.122
211500.000			-28.855			-4.122
211600.000			-28.856			-4.122
211701.000			-28.856			-4.122
211800.000			-28.856			-4.122
211900.000			-28.855			-4.122
212001.000			-28.854			-4.122
212100.000			-28.854			-4.122
212201.000			-28.854			-4.122
212302.000			-28.853			-4.122
212401.000			-28.853			-4.122
212500.000			-28.852			-4.122
212601.000			-28.853			-4.122
212700.000			-28.853			-4.122
212800.000			-28.852			-4.122
212901.000			-28.851			-4.122
213000.000			-28.851			-4.122
213100.000			-28.850			-4.121
213202.000			-28.850			-4.121
213301.000			-28.849			-4.121
213400.000			-28.849			-4.121
213501.000			-28.849			-4.121
213600.000			-28.849			-4.121
213700.000			-28.849			-4.121
213801.000			-28.848			-4.121
213900.000			-28.848			-4.121
214000.000			-28.847			-4.121
214102.000			-28.848			-4.121
214201.000			-28.847			-4.121
214302.000			-28.846			-4.121
214400.000			-28.847			-4.121
214500.000			-28.846			-4.121
214601.000			-28.845			-4.121
214700.000			-28.845			-4.121
214800.000			-28.846			-4.121
214901.000			-28.844			-4.121
215000.000			-28.844			-4.121
215101.000			-28.844			-4.121
215202.000			-28.844			-4.121
215301.000			-28.844			-4.121
215400.000			-28.844			-4.121
215501.000			-28.843			-4.120
215600.000			-28.843			-4.120
215700.000			-28.843			-4.120
215801.000			-28.842			-4.120
215900.000			-28.842			-4.120
216000.000			-28.841			-4.120
216102.000			-28.842			-4.120
216201.000			-28.841			-4.120
216300.000			-28.840			-4.120
216401.000			-28.841			-4.120
216500.000			-28.840			-4.120
216600.000			-28.839			-4.120
216701.000			-28.839			-4.120
216800.000			-28.839			-4.120
216900.000			-28.838			-4.120
217002.000			-28.838			-4.120
217101.000			-28.838			-4.120
217202.000			-28.837			-4.120
217300.000			-28.837			-4.120
217400.000			-28.837			-4.120
217501.000			-28.837			-4.120
217600.000			-28.836			-4.119
217700.000			-28.835			-4.119
217801.000			-28.836			-4.119
217900.000			-28.834			-4.119
218001.000			-28.835			-4.119
218102.000			-28.834			-4.119
218201.000			-28.834			-4.119
218300.000			-28.834			-4.119
218401.000			-28.834			-4.119
218500.000			-28.834			-4.119
218600.000			-28.833			-4.119
218701.000			-28.833			-4.119
218800.000			-28.833			-4.119
218900.000			-28.832			-4.119
219002.000			-28.831			-4.119
219101.000			-28.831			-4.119
219201.000			-28.831			-4.119
219301.000			-28.831			-4.119
219400.000			-28.831			-4.119
219500.000			-28.830			-4.119
219601.000			-28.830			-4.119
219700.000			-28.829			-4.118
219800.000			-28.828			-4.118
219901.000			-28.828			-4.118
220001.000			-28.828			-4.118
220101.000			-28.828			-4.118
220201.000			-28.828			-4.118
220300.000			-28.828			-4.118
220400.000			-28.828			-4.118
220500.000			-28.827			-4.118
220600.000			-28.826			-4.118
220701.000			-28.826			-4.118
220800.000			-28.826			-4.118
220901.000			-28.826			-4.118
221002.000			-28.826			-4.118
221101.000			-28.825			-4.118
221200.000			-28.825			-4.118
221301.000			-28.825			-4.118
221400.000			-28.825			-4.118
221500.000			-28.825			-4.118
221601.000			-28.824			-4.118
221700.000			-28.824			-4.118
221800.000			-28.823			-4.118
221902.000			-28.823			-4.118
222001.000			-28.822			-4.117
222100.000			-28.822			-4.117
222201.000			-28.822			-4.117
222300.000			-28.822			-4.117
222400.000			-28.821			-4.117
222501.000			-28.821			-4.117
222600.000			-28.821			-4.117
222700.000			-28.821			-4.117
222802.000			-28.820			-4.117
222901.000			-28.820			-4.117
223001.000			-28.819			-4.117
223101.000			-28.819			-4.117
223200.000			-28.818			-4.117
223300.000			-28.818			-4.117
223401.000			-28.818			-4.117
223500.000			-28.817			-4.117
223600.000			-28.817			-4.117
223700.000			-28.816			-4.117
223801.000			-28.817			-4.117
223902.000			-28.818			-4.117
224000.000			-28.817			-4.117
224100.000			-28.815			-4.116
224201.000			-28.815			-4.116
224300.000			-28.814			-4.116
224400.000			-28.814			-4.116
224501.000			-28.815			-4.116
224600.000			-28.815			-4.116
224701.000			-28.814			-4.116
224802.000			-28.812			-4.116
224901.000			-28.813			-4.116
225000.000			-28.813			-4.116
225101.000			-28.813			-4.116
225200.000			-28.813			-4.116
225300.000			-28.812			-4.116
225401.000			-28.812			-4.116
225500.000			-28.812			-4.116
225601.000			-28.811			-4.116
225702.000			-28.812			-4.116
225801.000			-28.811			-4.116
225900.000			-28.811			-4.116
226001.000			-28.810			-4.116
226100.000			-28.810			-4.116
226200.000			-28.810			-4.116
226301.000			-28.809			-4.116
226400.000			-28.809			-4.116
226500.000			-28.808			-4.115
226602.000			-28.809			-4.116
226701.000			-28.809			-4.116
226800.000			-28.808			-4.115
226900.000			-28.808			-4.115
227000.000			-28.807			-4.115
227101.000			-28.806			-4.115
227200.000			-28.806			-4.115
227300.000			-28.806			-4.115
227401.000			-28.805			-4.115
227501.000			-28.805			-4.115
227601.000			-28.806			-4.115
227702.000			-28.804			-4.115
227800.000			-28.805			-4.115
227900.000			-28.804			-4.115
228001.000			-28.804			-4.115
228100.000			-28.803			-4.115
228200.000			-28.803			-4.115
228301.000			-28.803			-4.115
228400.000			-28.803			-4.115
228501.000			-28.802			-4.115
228602.000			-28.802			-4.115
228701.000			-28.803			-4.115
228800.000			-28.802			-4.115
228901.000			-28.801			-4.114
229000.000			-28.801			-4.114
229100.000			-28.799			-4.114
229201.000			-28.800			-4.114
229300.000			-28.800			-4.114
229400.000			-28.799			-4.114
229502.000			-28.799			-4.114
229601.000			-28.800			-4.114
229700.000			-28.799			-4.114
229801.000			-28.798			-4.114
229900.000			-28.799			-4.114
230000.000			-28.797			-4.114
230100.000			-28.797			-4.114
230200.000			-28.797			-4.114
230301.000			-28.797			-4.114
230400.000			-28.796			-4.114
230501.000			-28.795			-4.114
230602.000			-28.796			-4.114
230700.000			-28.794			-4.113
230800.000			-28.794			-4.113
230901.000			-28.795			-4.114
231000.000			-28.795			-4.114
231100.000			-28.795			-4.114
231201.000			-28.794			-4.113
231300.000			-28.794			-4.113
231400.000			-28.793			-4.113
231502.000			-28.793			-4.113
231601.000			-28.792			-4.113
231700.000			-28.793			-4.113
231801.000			-28.793			-4.113
231900.000			-28.791			-4.113
232000.000			-28.792			-4.113
232101.000			-28.792			-4.113
232200.000			-28.792			-4.113
232300.000			-28.792			-4.113
232402.000			-28.791			-4.113
232501.000			-28.790			-4.113
232601.000			-28.790			-4.113
232701.000			-28.790			-4.113
232800.000			-28.790			-4.113
232900.000			-28.789			-4.113
233001.000			-28.788			-4.113
233100.000			-28.789			-4.113
233200.000			-28.789			-4.113
233300.000			-28.789			-4.113
233401.000			-28.789			-4.113
233502.000			-28.789			-4.113
233601.000			-28.788			-4.113
233700.000			-28.786			-4.112
233801.000			-28.786			-4.112
233900.000			-28.786			-4.112
234000.000			-28.786			-4.112
234101.000			-28.786			-4.112
234200.000			-28.787			-4.112
234300.000			-28.786			-4.112
234402.000			-28.785			-4.112
234501.000			-28.783			-4.112
234601.000			-28.784			-4.112
234701.000			-28.784			-4.112
234800.000			-28.784			-4.112
234900.000			-28.784			-4.112
235001.000			-28.783			-4.112
235100.000			-28.783			-4.112
235200.000			-28.783			-4.112
235301.000			-28.783			-4.112
235401.000			-28.782			-4.112
235501.000			-28.782			-4.112
235601.000			-28.782			-4.112
235700.000			-28.781			-4.112
235800.000			-28.780			-4.111
235901.000			-28.780			-4.111
236000.000			-28.780			-4.111
236100.000			-28.780			-4.111
236201.000			-28.780			-4.111
236300.000			-28.780			-4.111
236402.000			-28.780			-4.111
236501.000			-28.779			-4.111
236601.000			-28.779			-4.111
236701.000			-28.779			-4.111
236800.000			-28.778			-4.111
236900.000			-28.778			-4.111
237001.000			-28.778			-4.111
237100.000			-28.777			-4.111
237200.000			-28.777			-4.111
237301.000			-28.777			-4.111
237401.000			-28.777			-4.111
237501.000			-28.776			-4.111
237602.000			-28.775			-4.111
237700.000			-28.775			-4.111
237800.000			-28.774			-4.111
237901.000			-28.774			-4.111
238000.000			-28.774			-4.111
238100.000			-28.774			-4.111
238201.000			-28.773			-4.110
238300.000			-28.773			-4.110
238401.000			-28.774			-4.111
238502.000			-28.774			-4.111
238601.000			-28.773			-4.110
238700.000			-28.773			-4.110
238801.000			-28.772			-4.110
238900.000			-28.772			-4.110
239000.000			-28.771			-4.110
239101.000			-28.771			-4.110
239200.000			-28.772			-4.110
239300.000			-28.772			-4.110
239402.000			-28.771			-4.110
239501.000			-28.771			-4.110
239602.000			-28.771			-4.110
239700.000			-28.770			-4.110
239800.000			-28.769			-4.110
239901.000			-28.770			-4.110
240000.000			-28.769			-4.110
240100.000			-28.769			-4.110
240201.000			-28.768			-4.110
240300.000			-28.767			-4.110
240401.000			-28.767			-4.110
240502.000			-28.768			-4.110
240601.000			-28.768			-4.110
240700.000			-28.767			-4.110
240801.000			-28.766			-4.109
240900.000			-28.766			-4.109
241000.000			-28.766			-4.109
241101.000			-28.765			-4.109
241200.000			-28.765			-4.109
241300.000			-28.765			-4.109
241402.000			-28.765			-4.109
241501.000			-28.765			-4.109
241600.000			-28.764			-4.109
241701.000			-28.764			-4.109
241800.000			-28.764			-4.109
241900.000			-28.764			-4.109
242001.000			-28.764			-4.109
242100.000			-28.764			-4.109
242200.000			-28.762			-4.109
242302.000			-28.763			-4.109
242401.000			-28.761			-4.109
242501.000			-28.761			-4.109
242601.000			-28.762			-4.109
242700.000			-28.762			-4.109
242800.000			-28.761			-4.109
242900.000			-28.761			-4.109
243000.000			-28.761			-4.109
243101.000			-28.761			-4.109
243200.000			-28.761			-4.109
243301.000			-28.760			-4.109
243402.000			-28.759			-4.108
243501.000			-28.759			-4.108
243600.000			-28.759			-4.108
243701.000			-28.760			-4.109
243800.000			-28.758			-4.108
243900.000			-28.759			-4.108
244001.000			-28.758			-4.108
244100.000			-28.757			-4.108
244200.000			-28.757			-4.108
244302.000			-28.757			-4.108
244401.000			-28.756			-4.108
244500.000			-28.756			-4.108
244601.000			-28.756			-4.108
244700.000			-28.755			-4.108
244800.000			-28.756			-4.108
244901.000			-28.755			-4.108
245000.000			-28.755			-4.108
245100.000			-28.754			-4.108
245202.000			-28.753			-4.108
245301.000			-28.754			-4.108
245401.000			-28.754			-4.108
245501.000			-28.754			-4.108
245600.000			-28.754			-4.108
245700.000			-28.753			-4.108
245801.000			-28.752			-4.107
245900.000			-28.752			-4.107
246000.000			-28.752			-4.107
246100.000			-28.752			-4.107
246201.000			-28.752			-4.107
246302.000			-28.752			-4.107
246401.000			-28.750			-4.107
246500.000			-28.750			-4.107
246601.000			-28.751			-4.107
246700.000			-28.750			-4.107
246800.000			-28.750			-4.107
246901.000			-28.750			-4.107
247000.000			-28.749			-4.107
247100.000			-28.748			-4.107
247202.000			-28.748			-4.107
247301.000			-28.749			-4.107
247401.000			-28.749			-4.107
247501.000			16.568			2.367
247677.000			-28.747			-4.107
247765.000			-28.747			-4.107
247853.000			-28.747			-4.107
247941.000			-28.747			-4.107
248029.000			-28.746			-4.107
248117.000			-28.746			-4.107
248205.000			-28.746			-4.107
248300.000			-28.746			-4.107
248401.000			-28.745			-4.106
248500.000			-28.745			-4.106
248600.000			-28.745			-4.106
248702.000			-28.745			-4.106
248801.000			-28.746			-4.107
248900.000			-28.744			-4.106
249001.000			-28.745			-4.106
249100.000			-28.744			-4.106
249200.000			-28.744			-4.106
249300.000			-28.743			-4.106
249400.000			-28.741			-4.106
249501.000			-28.741			-4.106
249601.000			-28.742			-4.106
249701.000			-28.742			-4.106
249802.000			-28.741			-4.106
249900.000			-28.742			-4.106
250000.000			-28.741			-4.106
250101.000			-28.741			-4.106
250200.000			-28.740			-4.106
250300.000			-28.739			-4.106
250401.000			-28.739			-4.106
250500.000			-28.739			-4.106
250601.000			-28.739			-4.106
250702.000			-28.738			-4.105
250801.000			-28.738			-4.105
250900.000			-28.738			-4.105
251001.000			-28.738			-4.105
251100.000			-28.738			-4.105
251200.000			-28.738			-4.105
251301.000			-28.737			-4.105
251400.000			-28.736			-4.105
251500.000			-28.736			-4.105
251602.000			-28.736			-4.105
251701.000			-28.736			-4.105
251801.000			-28.736			-4.105
251901.000			-28.735			-4.105
252000.000			-28.736			-4.105
252100.000			-28.735			-4.105
252201.000			-28.734			-4.105
252300.000			-28.734			-4.105
252400.000			-28.734			-4.105
252502.000			-28.734			-4.105
252601.000			-28.734			-4.105
252702.000			-28.732			-4.105
252800.000			-28.732			-4.105
252900.000			-28.733			-4.105
253001.000			-28.734			-4.105
253100.000			-28.733			-4.105
253200.000			-28.731			-4.104
253301.000			-28.733			-4.105
253400.000			-28.731			-4.104
253501.000			-28.731			-4.104
253602.000			-28.732			-4.105
253701.000			-28.731			-4.104
253800.000			-28.730			-4.104
253901.000			-28.731			-4.104
254000.000			-28.731			-4.104
254100.000			-28.730			-4.104
254201.000			-28.730			-4.104
254300.000			-28.729			-4.104
254400.000			-28.729			-4.104
254502.000			-28.729			-4.104
254601.000			-28.728			-4.104
254701.000			-28.727			-4.104
254801.000			-28.727			-4.104
254900.000			-28.728			-4.104
255000.000			-28.728			-4.104
255101.000			-28.727			-4.104
255200.000			-28.727			-4.104
255300.000			-28.727			-4.104
255401.000			-28.725			-4.104
255501.000			-28.725			-4.104
255602.000			-28.727			-4.104
255701.000			-28.726			-4.104
255800.000			-28.726			-4.104
255901.000			-28.724			-4.103
256000.000			-28.724			-4.103
256100.000			-28.724			-4.103
256201.000			-28.724			-4.103
256300.000			-28.724			-4.103
256400.000			-28.724			-4.103
256502.000			-28.724			-4.103
256601.000			-28.724			-4.103
256700.000			-28.723			-4.103
256801.000			-28.723			-4.103
256900.000			-28.722			-4.103
257000.000			-28.722			-4.103
257101.000			-28.722			-4.103
257200.000			-28.722			-4.103
257300.000			-28.722			-4.103
257402.000			-28.721			-4.103
257501.000			-28.719			-4.103
257601.000			-28.720			-4.103
257701.000			-28.721			-4.103
257800.000			-28.719			-4.103
257900.000			-28.719			-4.103
258001.000			-28.719			-4.103
258100.000			-28.720			-4.103
258200.000			-28.719			-4.103
258301.000			-28.719			-4.103
258401.000			-28.719			-4.103
258501.000			-28.718			-4.103
258602.000			-28.718			-4.103
258700.000			-28.717			-4.102
258800.000			-28.717			-4.102
258900.000			-28.717			-4.102
259000.000			-28.716			-4.102
259101.000			-28.716			-4.102
259200.000			-28.716			-4.102
259300.000			-28.716			-4.102
259402.000			-28.715			-4.102
259501.000			-28.715			-4.102
259601.000			-28.714			-4.102
259701.000			-28.715			-4.102
259800.000			-28.715			-4.102
259900.000			-28.715			-4.102
260001.000			-28.714			-4.102
260100.000			-28.713			-4.102
260200.000			-28.714			-4.102
260301.000			-28.713			-4.102
260401.000			-28.713			-4.102
260501.000			-28.713			-4.102
260601.000			-28.713			-4.102
260700.000			-28.713			-4.102
260800.000			-28.712			-4.102
260901.000			-28.712			-4.102
261000.000			-28.712			-4.102
261100.000			-28.711			-4.102
261201.000			-28.711			-4.102
261301.000			-28.710			-4.101
261401.000			-28.710			-4.101
261502.000			-28.710			-4.101
261600.000			-28.710			-4.101
261700.000			-28.711			-4.102
261801.000			-28.710			-4.101
261900.000			-28.710			-4.101
262000.000			-28.709			-4.101
262100.000			-28.709			-4.101
262200.000			-28.709			-4.101
262302.000			-28.708			-4.101
262401.000			-28.708			-4.101
262501.000			-28.707			-4.101
262601.000			-28.706			-4.101
262700.000			-28.707			-4.101
262800.000			-28.707			-4.101
262901.000			-28.707			-4.101
263000.000			-28.706			-4.101
263100.000			-28.707			-4.101
263201.000			-28.706			-4.101
263301.000			-28.706			-4.101
263401.000			-28.706			-4.101
263501.000			-28.705			-4.101
263600.000			-28.705			-4.101
263700.000			-28.705			-4.101
263801.000			-28.705			-4.101
263900.000			-28.705			-4.101
264000.000			-28.704			-4.101
264101.000			-28.703			-4.100
264201.000			-28.703			-4.100
264301.000			-28.703			-4.100
264402.000			-28.704			-4.101
264500.000			-28.703			-4.100
264600.000			-28.703			-4.100
264701.000			-28.702			-4.100
264800.000			-28.702			-4.100
264900.000			-28.701			-4.100
265001.000			-28.701			-4.100
265101.000			-28.702			-4.100
265202.000			-28.701			-4.100
265301.000			-28.701			-4.100
265400.000			-28.701			-4.100
265501.000			-28.701			-4.100
265600.000			-28.701			-4.100
265700.000			-28.700			-4.100
265801.000			-28.699			-4.100
265900.000			-28.699			-4.100
266000.000			-28.699			-4.100
266102.000			-28.699			-4.100
266201.000			-28.699			-4.100
266301.000			-28.698			-4.100
266401.000			-28.698			-4.100
266500.000			-28.698			-4.100
266600.000			-28.697			-4.100
266701.000			-28.696			-4.099
266800.000			-28.698			-4.100
266900.000			-28.697			-4.100
267001.000			-28.697			-4.100
267100.000			-28.696			-4.099
267201.000			-28.695			-4.099
267302.000			-28.695			-4.099
267401.000			-28.694			-4.099
267500.000			-28.695			-4.099
267601.000			-28.695			-4.099
267700.000			-28.694			-4.099
267800.000			-28.694			-4.099
267901.000			-28.693			-4.099
268000.000			-28.694			-4.099
268100.000			-28.693			-4.099
268202.000			-28.694			-4.099
268301.000			-28.694			-4.099
268402.000			-28.692			-4.099
268500.000			-28.692			-4.099
268600.000			-28.691			-4.099
268701.000			-28.691			-4.099
268800.000			-28.691			-4.099
268900.000			-28.691			-4.099
269001.000			-28.692			-4.099
269100.000			-28.691			-4.099
269201.000			-28.690			-4.099
269302.000			-28.690			-4.099
269401.000			-28.691			-4.099
269500.000			-28.690			-4.099
269601.000			-28.689			-4.098
269700.000			-28.689			-4.098
269800.000			-28.689			-4.098
269901.000			-28.689			-4.098
270000.000			-28.689			-4.098
270100.000			-28.689			-4.098
270202.000			-28.688			-4.098
270301.000			-28.687			-4.098
270401.000			-28.687			-4.098
270501.000			-28.686			-4.098
270600.000			-28.686			-4.098
270700.000			-28.686			-4.098
270801.000			-28.686			-4.098
270900.000			-28.686			-4.098
271000.000			-28.686			-4.098
271101.000			-28.686			-4.098
271201.000			-28.685			-4.098
271301.000			-28.685			-4.098
271402.000			-28.684			-4.098
271500.000			-28.685			-4.098
271600.000			-28.683			-4.098
271700.000			-28.685			-4.098
271800.000			-28.685			-4.098
271901.000			-28.684			-4.098
272000.000			-28.683			-4.098
272100.000			-28.683			-4.098
272202.000			-28.683			-4.098
272301.000			-28.683			-4.098
272401.000			-28.682			-4.097
272501.000			-28.682			-4.097
272600.000			-28.682			-4.097
272700.000			-28.681			-4.097
272801.000			-28.681			-4.097
272900.000			-28.681			-4.097
273000.000			-28.680			-4.097
273101.000			-28.680			-4.097
273201.000			-28.680			-4.097
273301.000			-28.680			-4.097
273401.000			-28.680			-4.097
273500.000			-28.680			-4.097
273600.000			-28.679			-4.097
273701.000			-28.679			-4.097
273800.000			-28.679			-4.097
273900.000			-28.679			-4.097
274001.000			-28.680			-4.097
274100.000			-28.678			-4.097
274201.000			-28.678			-4.097
274302.000			-28.678			-4.097
274401.000			-28.679			-4.097
274500.000			-28.678			-4.097
274601.000			-28.677			-4.097
274700.000			-28.677			-4.097
274800.000			-28.676			-4.097
274900.000			-28.676			-4.097
275000.000			-28.676			-4.097
275101.000			-28.676			-4.097
275201.000			-28.676			-4.097
275301.000			-28.676			-4.097
275402.000			-28.675			-4.096
275500.000			-28.675			-4.096
275600.000			-28.675			-4.096
275701.000			-28.675			-4.096
275800.000			-28.674			-4.096
275900.000			-28.674			-4.096
276001.000			-28.674			-4.096
276100.000			-28.673			-4.096
276201.000			-28.672			-4.096
276302.000			-28.672			-4.096
276401.000			-28.672			-4.096
276500.000			-28.672			-4.096
276601.000			-28.672			-4.096
276700.000			-28.672			-4.096
276800.000			-28.672			-4.096
276901.000			-28.672			-4.096
277000.000			-28.671			-4.096
277100.000			-28.671			-4.096
277202.000			-28.672			-4.096
277301.000			-28.671			-4.096
277401.000			-28.671			-4.096
277501.000			-28.669			-4.096
277600.000			-28.670			-4.096
277700.000			-28.669			-4.096
277801.000			-28.668			-4.095
277900.000			-28.668			-4.095
278000.000			-28.668			-4.095
278100.000			-28.668			-4.095
278200.000			-28.668			-4.095
278302.000			-28.668			-4.095
278401.000			-28.668			-4.095
278500.000			-28.668			-4.095
278601.000			-28.667			-4.095
278700.000			-28.667			-4.095
278800.000			-28.666			-4.095
278901.000			-28.667			-4.095
279000.000			-28.667			-4.095
279100.000			-28.665			-4.095
279201.000			-28.666			-4.095
279301.000			-28.666			-4.095
279401.000			-28.665			-4.095
279501.000			-28.665			-4.095
279600.000			-28.664			-4.095
279700.000			-28.664			-4.095
279801.000			-28.665			-4.095
279900.000			-28.665			-4.095
280000.000			-28.664			-4.095
280101.000			-28.664			-4.095
280201.000			-28.662			-4.095
280301.000			-28.663			-4.095
280402.000			-28.663			-4.095
280500.000			-28.662			-4.095
280600.000			-28.663			-4.095
280701.000			-28.662			-4.095
280800.000			-28.662			-4.095
280900.000			-28.661			-4.094
281001.000			-28.661			-4.094
281100.000			-28.661			-4.094
281202.000			-28.659			-4.094
281301.000			-28.660			-4.094
281401.000			-28.660			-4.094
281501.000			-28.659			-4.094
281600.000			-28.660			-4.094
281700.000			-28.660			-4.094
281801.000			-28.658			-4.094
281900.000			-28.658			-4.094
282000.000			-28.659			-4.094
282101.000			-28.659			-4.094
282201.000			-28.658			-4.094
282301.000			-28.657			-4.094
282401.000			-28.657			-4.094
282500.000			-28.658			-4.094
282600.000			-28.657			-4.094
282701.000			-28.657			-4.094
282800.000			-28.657			-4.094
282900.000			-28.656			-4.094
283001.000			-28.655			-4.094
283101.000			-28.655			-4.094
283201.000			-28.657			-4.094
283302.000			-28.656			-4.094
283400.000			-28.655			-4.094
283500.000			-28.655			-4.094
283601.000			-28.654			-4.093
283700.000			-28.654			-4.093
283800.000			-28.654			-4.093
283901.000			-28.655			-4.094
284000.000			-28.654			-4.093
284101.000			-28.653			-4.093
284202.000			-28.652			-4.093
284301.000			-28.652			-4.093
284400.000			-28.651			-4.093
284500.000			-28.653			-4.093
284600.000			-28.653			-4.093
284701.000			-28.652			-4.093
284800.000			-28.651			-4.093
284900.000			-28.651			-4.093
285001.000			-28.651			-4.093
285101.000			-28.650			-4.093
285201.000			-28.650			-4.093
285302.000			-28.649			-4.093
285400.000			-28.649			-4.093
285500.000			-28.650			-4.093
285601.000			-28.650			-4.093
285700.000			-28.649			-4.093
285800.000			-28.648			-4.093
285901.000			-28.648			-4.093
286000.000			-28.649			-4.093
286100.000			-28.649			-4.093
286202.000			-28.649			-4.093
286301.000			-28.648			-4.093
286400.000			-28.648			-4.093
286501.000			-28.647			-4.092
286600.000			-28.648			-4.093
286700.000			-28.647			-4.092
286801.000			-28.647			-4.092
286900.000			-28.647			-4.092
287000.000			-28.646			-4.092
287101.000			-28.647			-4.092
287201.000			-28.646			-4.092
287301.000			-28.645			-4.092
287401.000			-28.647			-4.092
287500.000			-28.646			-4.092
287600.000			-28.645			-4.092
287700.000			-28.644			-4.092
287800.000			-28.644			-4.092
287901.000			-28.643			-4.092
288000.000			-28.643			-4.092
288100.000			-28.644			-4.092
288202.000			-28.644			-4.092
288301.000			-28.642			-4.092
288400.000			-28.642			-4.092
288501.000			-28.641			-4.092
288600.000			-28.641			-4.092
288700.000			-28.641			-4.092
288801.000			-28.642			-4.092
288900.000			-28.643			-4.092
289000.000			-28.642			-4.092
289102.000			-28.641			-4.092
289201.000			-28.640			-4.091
289301.000			-28.642			-4.092
289401.000			-28.641			-4.092
289500.000			-28.640			-4.091
289600.000			-28.640			-4.091
289701.000			-28.640			-4.091
289800.000			-28.639			-4.091
289900.000			-28.639			-4.091
290001.000			-28.638			-4.091
290101.000			-28.639			-4.091
290201.000			-28.640			-4.091
290302.000			-28.639			-4.091
290400.000			-28.638			-4.091
290500.000			-28.638			-4.091
290601.000			-28.638			-4.091
290700.000			-28.637			-4.091
290800.000			-28.636			-4.091
290900.000			-28.636			-4.091
291000.000			-28.637			-4.091
291102.000			-28.636			-4.091
291201.000			-28.635			-4.091
291301.000			-28.634			-4.091
291401.000			-28.634			-4.091
291500.000			-28.635			-4.091
291600.000			-28.634			-4.091
291701.000			-28.634			-4.091
291800.000			-28.634			-4.091
291900.000			-28.634			-4.091
292001.000			-28.634			-4.091
292101.000			-28.632			-4.090
292201.000			-28.633			-4.090
292301.000			-28.632			-4.090
292400.000			-28.632			-4.090
292500.000			-28.632			-4.090
292601.000			-28.632			-4.090
292700.000			-28.632			-4.090
292800.000			-28.632			-4.090
292901.000			-28.632			-4.090
293001.000			-28.632			-4.090
293101.000			-28.632			-4.090
293202.000			-28.632			-4.090
293300.000			-28.631			-4.090
293400.000			-28.631			-4.090
293501.000			-28.631			-4.090
293600.000			-28.631			-4.090
293700.000			-28.629			-4.090
293801.000			-28.629			-4.090
293900.000			-28.629			-4.090
294002.000			-28.629			-4.090
294101.000			-28.629			-4.090
294201.000			-28.629			-4.090
294301.000			-28.629			-4.090
294400.000			-28.628			-4.090
294500.000			-28.628			-4.090
294601.000			-28.628			-4.090
294700.000			-28.628			-4.090
294800.000			-28.627			-4.090
294901.000			-28.627			-4.090
295001.000			-28.627			-4.090
295101.000			-28.627			-4.090
295201.000			-28.626			-4.089
295300.000			-28.627			-4.090
295400.000			-28.626			-4.089
295501.000			-28.626			-4.089
295600.000			-28.626			-4.089
295700.000			-28.625			-4.089
295801.000			-28.625			-4.089
295900.000			-28.625			-4.089
296001.000			-28.625			-4.089
296102.000			-28.625			-4.089
296200.000			-28.625			-4.089
296300.000			-28.625			-4.089
296401.000			-28.623			-4.089
296500.000			-28.623			-4.089
296600.000			-28.623			-4.089
296701.000			-28.622			-4.089
296800.000			-28.622			-4.089
296901.000			-28.623			-4.089
297002.000			-28.622			-4.089
297101.000			-28.622			-4.089
297200.000			-28.622			-4.089
297300.000			-28.622			-4.089
297400.000			-28.621			-4.089
297501.000			-28.620			-4.089
297600.000			-28.621			-4.089
297700.000			-28.621			-4.089
297801.000			-28.621			-4.089
297901.000			-28.621			-4.089
298001.000			-28.621			-4.089
298102.000			-28.620			-4.089
298200.000			-28.619			-4.088
298300.000			-28.619			-4.088
298401.000			-28.619			-4.088
298500.000			-28.619			-4.088
298600.000			-28.618			-4.088
298701.000			-28.617			-4.088
298800.000			-28.617			-4.088
298901.000			-28.618			-4.088
299002.000			-28.617			-4.088
299101.000			-28.617			-4.088
299200.000			-28.617			-4.088
299301.000			-28.617			-4.088
299400.000			-28.618			-4.088
299500.000			-28.617			-4.088
299601.000			-28.617			-4.088
299700.000			-28.617			-4.088
299800.000			-28.616			-4.088
299902.000			-28.617			-4.088
