# Acquired on 20/12/2023 18:03:10 
# SPIDER: Creep_7mm_0771453C
# CREEP MEASUREMENT

# time [ms]		force [N]		stiffness [N/mm]
0.000			-51.056			-7.294
100.000			-53.170			-7.596
201.000			-53.675			-7.668
300.000			-53.316			-7.617
400.000			-53.048			-7.578
502.000			-52.870			-7.553
601.000			-52.723			-7.532
700.000			-52.486			-7.498
801.000			-52.388			-7.484
900.000			-52.299			-7.471
1000.000			-52.219			-7.460
1101.000			-52.144			-7.449
1201.000			-52.074			-7.439
1301.000			-52.010			-7.430
1401.000			-51.894			-7.413
1500.000			-51.841			-7.406
1601.000			-51.791			-7.399
1700.000			-51.744			-7.392
1800.000			-51.698			-7.385
1901.000			-51.656			-7.379
2001.000			-51.615			-7.374
2101.000			-51.575			-7.368
2201.000			-51.502			-7.357
2300.000			-51.467			-7.352
2400.000			-51.432			-7.347
2501.000			-51.399			-7.343
2600.000			-51.368			-7.338
2700.000			-51.337			-7.334
2802.000			-51.307			-7.330
2901.000			-51.252			-7.322
3000.000			-51.225			-7.318
3101.000			-51.199			-7.314
3200.000			-51.173			-7.310
3300.000			-51.148			-7.307
3401.000			-51.123			-7.303
3501.000			-51.099			-7.300
3601.000			-51.055			-7.294
3701.000			-51.032			-7.290
3800.000			-51.011			-7.287
3900.000			-50.990			-7.284
4001.000			-50.970			-7.281
4100.000			-50.950			-7.279
4200.000			-50.929			-7.276
4302.000			-50.910			-7.273
4401.000			-50.874			-7.268
4500.000			-50.854			-7.265
4601.000			-50.836			-7.262
4700.000			-50.819			-7.260
4801.000			-50.803			-7.258
4900.000			-50.785			-7.255
5000.000			-50.769			-7.253
5102.000			-50.737			-7.248
5201.000			-50.721			-7.246
5300.000			-50.705			-7.244
5401.000			-50.690			-7.241
5500.000			-50.675			-7.239
5600.000			-50.660			-7.237
5701.000			-50.645			-7.235
5801.000			-50.618			-7.231
5901.000			-50.604			-7.229
6001.000			-50.590			-7.227
6100.000			-50.575			-7.225
6200.000			-50.561			-7.223
6301.000			-50.549			-7.221
6400.000			-50.537			-7.220
6500.000			-50.524			-7.218
6602.000			-50.499			-7.214
6701.000			-50.488			-7.213
6800.000			-50.476			-7.211
6901.000			-50.464			-7.209
7000.000			-50.452			-7.207
7100.000			-50.439			-7.206
7201.000			-50.427			-7.204
7301.000			-50.406			-7.201
7401.000			-50.394			-7.199
7501.000			-50.382			-7.197
7600.000			-50.372			-7.196
7700.000			-50.362			-7.195
7801.000			-50.351			-7.193
7900.000			-50.340			-7.191
8001.000			-50.318			-7.188
8101.000			-50.308			-7.187
8201.000			-50.299			-7.186
8301.000			-50.289			-7.184
8400.000			-50.278			-7.183
8500.000			-50.268			-7.181
8601.000			-50.258			-7.180
8700.000			-50.250			-7.179
8800.000			-50.230			-7.176
8902.000			-50.221			-7.174
9001.000			-50.212			-7.173
9100.000			-50.203			-7.172
9201.000			-50.194			-7.171
9300.000			-50.185			-7.169
9400.000			-50.175			-7.168
9501.000			-50.158			-7.165
9601.000			-50.149			-7.164
9701.000			-50.141			-7.163
9801.000			-50.132			-7.162
9900.000			-50.124			-7.161
10000.000			-50.116			-7.159
10101.000			-50.106			-7.158
10200.000			-50.091			-7.156
10300.000			-50.083			-7.155
10402.000			-50.075			-7.154
10501.000			-50.066			-7.152
10600.000			-50.059			-7.151
10701.000			-50.052			-7.150
10800.000			-50.043			-7.149
10900.000			-50.035			-7.148
11001.000			-50.021			-7.146
11101.000			-50.013			-7.145
11202.000			-50.006			-7.144
11301.000			-49.999			-7.143
11400.000			-49.991			-7.142
11501.000			-49.984			-7.141
11600.000			-49.977			-7.140
11700.000			-49.963			-7.138
11801.000			-49.956			-7.137
11900.000			-49.948			-7.135
12001.000			-49.941			-7.134
12102.000			-49.935			-7.134
12200.000			-49.928			-7.133
12300.000			-49.921			-7.132
12401.000			-49.908			-7.130
12500.000			-49.900			-7.129
12600.000			-49.894			-7.128
12701.000			-49.888			-7.127
12801.000			-49.881			-7.126
12901.000			-49.874			-7.125
13001.000			-49.868			-7.124
13100.000			-49.862			-7.123
13200.000			-49.849			-7.121
13301.000			-49.843			-7.120
13400.000			-49.836			-7.119
13500.000			-49.830			-7.119
13602.000			-49.824			-7.118
13701.000			-49.818			-7.117
13800.000			-49.813			-7.116
13901.000			-49.800			-7.114
14000.000			-49.794			-7.113
14100.000			-49.788			-7.113
14201.000			-49.782			-7.112
14300.000			-49.776			-7.111
14401.000			-49.770			-7.110
14501.000			-49.764			-7.109
14601.000			-49.759			-7.108
14701.000			-49.748			-7.107
14800.000			-49.743			-7.106
14900.000			-49.738			-7.105
15001.000			-49.731			-7.104
15100.000			-49.726			-7.104
15200.000			-49.720			-7.103
15302.000			-49.715			-7.102
15401.000			-49.704			-7.101
15500.000			-49.698			-7.100
15601.000			-49.693			-7.099
15700.000			-49.688			-7.098
15800.000			-49.683			-7.098
15901.000			-49.678			-7.097
16000.000			-49.673			-7.096
16101.000			-49.663			-7.095
16202.000			-49.657			-7.094
16301.000			-49.652			-7.093
16400.000			-49.647			-7.092
16501.000			-49.641			-7.092
16600.000			-49.636			-7.091
16700.000			-49.632			-7.090
16801.000			-49.626			-7.089
16901.000			-49.616			-7.088
17001.000			-49.611			-7.087
17102.000			-49.606			-7.087
17200.000			-49.601			-7.086
17300.000			-49.597			-7.085
17401.000			-49.592			-7.085
17500.000			-49.587			-7.084
17601.000			-49.578			-7.083
17700.000			-49.574			-7.082
17801.000			-49.568			-7.081
17902.000			-49.563			-7.080
18000.000			-49.559			-7.080
18100.000			-49.556			-7.079
18201.000			-49.551			-7.079
18300.000			-49.541			-7.077
18400.000			-49.535			-7.076
18501.000			-49.531			-7.076
18601.000			-49.527			-7.075
18701.000			-49.522			-7.075
18801.000			-49.518			-7.074
18900.000			-49.514			-7.073
19000.000			-49.509			-7.073
19101.000			-49.500			-7.071
19200.000			-49.496			-7.071
19300.000			-49.492			-7.070
19401.000			-49.488			-7.070
19501.000			-49.484			-7.069
19601.000			-49.479			-7.068
19701.000			-49.474			-7.068
19800.000			-49.465			-7.066
19900.000			-49.461			-7.066
20001.000			-49.457			-7.065
20100.000			-49.452			-7.065
20200.000			-49.449			-7.064
20302.000			-49.445			-7.064
20401.000			-49.440			-7.063
20500.000			-49.434			-7.062
20601.000			-49.429			-7.061
20700.000			-49.424			-7.061
20801.000			-49.420			-7.060
20900.000			-49.417			-7.060
21000.000			-49.413			-7.059
21102.000			-49.408			-7.058
21201.000			-49.405			-7.058
21300.000			-49.396			-7.057
21401.000			-49.392			-7.056
21500.000			-49.388			-7.055
21600.000			-49.384			-7.055
21701.000			-49.381			-7.054
21800.000			-49.377			-7.054
21900.000			-49.374			-7.053
22002.000			-49.364			-7.052
22101.000			-49.361			-7.052
22200.000			-49.358			-7.051
22301.000			-49.354			-7.051
22400.000			-49.351			-7.050
22500.000			-49.347			-7.050
22601.000			-49.344			-7.049
22701.000			-49.335			-7.048
22801.000			-49.331			-7.047
22902.000			-49.328			-7.047
23000.000			-49.325			-7.046
23100.000			-49.320			-7.046
23201.000			-49.317			-7.045
23300.000			-49.313			-7.045
23400.000			-49.310			-7.044
23502.000			-49.302			-7.043
23601.000			-49.298			-7.043
23701.000			-49.294			-7.042
23801.000			-49.291			-7.042
23900.000			-49.288			-7.041
24001.000			-49.285			-7.041
24100.000			-49.281			-7.040
24200.000			-49.274			-7.039
24301.000			-49.271			-7.039
24401.000			-49.267			-7.038
24501.000			-49.264			-7.038
24601.000			-49.261			-7.037
24700.000			-49.257			-7.037
24800.000			-49.253			-7.036
24901.000			-49.247			-7.035
25000.000			-49.244			-7.035
25100.000			-49.240			-7.034
25202.000			-49.236			-7.034
25301.000			-49.233			-7.033
25400.000			-49.229			-7.033
25501.000			-49.227			-7.032
25600.000			-49.223			-7.032
25700.000			-49.218			-7.031
25801.000			-49.214			-7.031
25900.000			-49.211			-7.030
26001.000			-49.208			-7.030
26102.000			-49.203			-7.029
26200.000			-49.200			-7.029
26300.000			-49.198			-7.028
26401.000			-49.191			-7.027
26500.000			-49.188			-7.027
26600.000			-49.185			-7.026
26701.000			-49.182			-7.026
26801.000			-49.178			-7.025
26901.000			-49.175			-7.025
27001.000			-49.172			-7.025
27100.000			-49.168			-7.024
27201.000			-49.161			-7.023
27300.000			-49.158			-7.023
27400.000			-49.156			-7.022
27501.000			-49.153			-7.022
27601.000			-49.150			-7.021
27701.000			-49.146			-7.021
27801.000			-49.143			-7.020
27900.000			-49.137			-7.020
28000.000			-49.134			-7.019
28101.000			-49.132			-7.019
28200.000			-49.129			-7.018
28300.000			-49.125			-7.018
28402.000			-49.122			-7.017
28501.000			-49.118			-7.017
28600.000			-49.113			-7.016
28701.000			-49.110			-7.016
28800.000			-49.108			-7.015
28900.000			-49.105			-7.015
29001.000			-49.101			-7.014
29100.000			-49.099			-7.014
29201.000			-49.097			-7.014
29302.000			-49.092			-7.013
29400.000			-49.089			-7.013
29500.000			-49.085			-7.012
29601.000			-49.082			-7.012
29700.000			-49.080			-7.011
29800.000			-49.076			-7.011
29901.000			-49.074			-7.011
30001.000			-49.071			-7.010
30101.000			-49.065			-7.009
30201.000			-49.062			-7.009
30300.000			-49.059			-7.008
30401.000			-49.057			-7.008
30500.000			-49.053			-7.008
30600.000			-49.051			-7.007
30701.000			-49.048			-7.007
30801.000			-49.042			-7.006
30901.000			-49.039			-7.006
31001.000			-49.037			-7.005
31100.000			-49.033			-7.005
31200.000			-49.031			-7.004
31301.000			-49.028			-7.004
31400.000			-49.026			-7.004
31500.000			-49.023			-7.003
31602.000			-49.019			-7.003
31701.000			-49.015			-7.002
31800.000			-49.013			-7.002
31901.000			-49.010			-7.001
32000.000			-49.007			-7.001
32100.000			-49.005			-7.001
32201.000			-49.002			-7.000
32300.000			-48.997			-7.000
32401.000			-48.995			-6.999
32502.000			-48.993			-6.999
32600.000			-48.990			-6.999
32700.000			-48.987			-6.998
32801.000			-48.984			-6.998
32900.000			-48.982			-6.997
33000.000			-48.977			-6.997
33101.000			-48.974			-6.996
33201.000			-48.971			-6.996
33301.000			-48.968			-6.995
33401.000			-48.965			-6.995
33500.000			-48.963			-6.995
33601.000			-48.961			-6.994
33700.000			-48.958			-6.994
33800.000			-48.954			-6.993
33901.000			-48.951			-6.993
34000.000			-48.948			-6.993
34101.000			-48.946			-6.992
34202.000			-48.944			-6.992
34300.000			-48.942			-6.992
34400.000			-48.939			-6.991
34501.000			-48.933			-6.990
34600.000			-48.931			-6.990
34700.000			-48.929			-6.990
34801.000			-48.926			-6.989
34901.000			-48.924			-6.989
35001.000			-48.922			-6.989
35101.000			-48.920			-6.989
35200.000			-48.914			-6.988
35300.000			-48.912			-6.987
35401.000			-48.910			-6.987
35500.000			-48.908			-6.987
35600.000			-48.904			-6.986
35702.000			-48.902			-6.986
35801.000			-48.900			-6.986
35900.000			-48.897			-6.985
36001.000			-48.893			-6.985
36100.000			-48.890			-6.984
36200.000			-48.889			-6.984
36301.000			-48.885			-6.984
36400.000			-48.882			-6.983
36501.000			-48.880			-6.983
36602.000			-48.878			-6.983
36701.000			-48.875			-6.982
36801.000			-48.872			-6.982
36900.000			-48.870			-6.981
37000.000			-48.868			-6.981
37101.000			-48.865			-6.981
37200.000			-48.862			-6.980
37300.000			-48.862			-6.980
37402.000			-48.856			-6.979
37501.000			-48.853			-6.979
37600.000			-48.850			-6.979
37701.000			-48.849			-6.978
37800.000			-48.847			-6.978
37900.000			-48.844			-6.978
38001.000			-48.843			-6.978
38100.000			-48.841			-6.977
38201.000			-48.836			-6.977
38302.000			-48.834			-6.976
38400.000			-48.831			-6.976
38500.000			-48.829			-6.976
38601.000			-48.827			-6.975
38700.000			-48.825			-6.975
38800.000			-48.822			-6.975
38901.000			-48.818			-6.974
39000.000			-48.817			-6.974
39101.000			-48.815			-6.974
39202.000			-48.812			-6.973
39300.000			-48.809			-6.973
39400.000			-48.808			-6.973
39501.000			-48.806			-6.972
39600.000			-48.801			-6.972
39700.000			-48.799			-6.971
39801.000			-48.796			-6.971
39901.000			-48.792			-6.970
40002.000			-48.790			-6.970
40100.000			-48.789			-6.970
40200.000			-48.787			-6.970
40301.000			-48.785			-6.969
40400.000			-48.780			-6.969
40500.000			-48.778			-6.968
40601.000			-48.775			-6.968
40701.000			-48.773			-6.968
40801.000			-48.771			-6.967
40901.000			-48.768			-6.967
41000.000			-48.767			-6.967
41100.000			-48.763			-6.966
41201.000			-48.760			-6.966
41300.000			-48.759			-6.966
41400.000			-48.757			-6.965
41502.000			-48.754			-6.965
41601.000			-48.752			-6.965
41700.000			-48.750			-6.964
41801.000			-48.746			-6.964
41900.000			-48.744			-6.963
42000.000			-48.742			-6.963
42101.000			-48.739			-6.963
42200.000			-48.737			-6.962
42301.000			-48.735			-6.962
42402.000			-48.734			-6.962
42501.000			-48.732			-6.962
42600.000			-48.728			-6.961
42701.000			-48.726			-6.961
42800.000			-48.723			-6.960
42900.000			-48.722			-6.960
43001.000			-48.721			-6.960
43101.000			-48.718			-6.960
43202.000			-48.716			-6.959
43301.000			-48.710			-6.959
43400.000			-48.709			-6.958
43501.000			-48.707			-6.958
43600.000			-48.705			-6.958
43700.000			-48.704			-6.958
43801.000			-48.703			-6.958
43900.000			-48.700			-6.957
44001.000			-48.696			-6.957
44102.000			-48.694			-6.956
44200.000			-48.691			-6.956
44300.000			-48.689			-6.956
44401.000			-48.688			-6.955
44500.000			-48.687			-6.955
44600.000			-48.685			-6.955
44701.000			-48.683			-6.955
44801.000			-48.679			-6.954
44901.000			-48.678			-6.954
45001.000			-48.675			-6.954
45100.000			-48.673			-6.953
45200.000			-48.670			-6.953
45301.000			-48.669			-6.953
45400.000			-48.667			-6.952
45500.000			-48.663			-6.952
45602.000			-48.661			-6.952
45701.000			-48.658			-6.951
45801.000			-48.656			-6.951
45901.000			-48.654			-6.951
46000.000			-48.653			-6.950
46100.000			-48.651			-6.950
46201.000			-48.648			-6.950
46300.000			-48.647			-6.950
46401.000			-48.644			-6.949
46501.000			-48.642			-6.949
46601.000			-48.640			-6.949
46701.000			-48.638			-6.948
46800.000			-48.636			-6.948
46900.000			-48.635			-6.948
47001.000			-48.632			-6.947
47100.000			-48.630			-6.947
47200.000			-48.629			-6.947
47302.000			-48.627			-6.947
47401.000			-48.624			-6.946
47500.000			-48.622			-6.946
47601.000			-48.621			-6.946
47700.000			-48.618			-6.945
47800.000			-48.615			-6.945
47901.000			-48.615			-6.945
48000.000			-48.613			-6.945
48101.000			-48.611			-6.944
48202.000			-48.608			-6.944
48300.000			-48.607			-6.944
48400.000			16.104			2.301
48501.000			57.300			8.186
48600.000			-48.599			-6.943
48700.000			-48.598			-6.943
48801.000			-48.597			-6.942
48900.000			-48.596			-6.942
49001.000			-48.594			-6.942
49102.000			-48.591			-6.942
49200.000			-48.588			-6.941
49300.000			-48.587			-6.941
49401.000			-48.585			-6.941
49500.000			-48.582			-6.940
49601.000			-48.581			-6.940
49700.000			-48.580			-6.940
49801.000			-48.578			-6.940
49902.000			-48.575			-6.939
50001.000			-48.572			-6.939
50100.000			-48.570			-6.939
50201.000			-48.568			-6.938
50300.000			-48.567			-6.938
50400.000			-48.566			-6.938
50501.000			-48.565			-6.938
50600.000			-48.563			-6.938
50701.000			-48.558			-6.937
50802.000			-48.556			-6.937
50900.000			-48.555			-6.936
51000.000			-48.554			-6.936
51101.000			-48.552			-6.936
51200.000			-48.551			-6.936
51300.000			-48.549			-6.936
51401.000			-48.546			-6.935
51501.000			-48.544			-6.935
51601.000			-48.542			-6.935
51701.000			-48.541			-6.934
51800.000			-48.540			-6.934
51900.000			-48.538			-6.934
52001.000			-48.536			-6.934
52100.000			-48.534			-6.933
52200.000			-48.531			-6.933
52302.000			-48.528			-6.933
52401.000			-48.527			-6.932
52500.000			-48.526			-6.932
52601.000			-48.525			-6.932
52700.000			-48.522			-6.932
52801.000			-48.521			-6.932
52900.000			-48.517			-6.931
53000.000			-48.515			-6.931
53102.000			-48.514			-6.931
53201.000			-48.512			-6.930
53300.000			-48.512			-6.930
53401.000			-48.510			-6.930
53500.000			-48.508			-6.930
53600.000			-48.504			-6.929
53701.000			-48.502			-6.929
53800.000			-48.501			-6.929
53901.000			-48.500			-6.929
54002.000			-48.499			-6.928
54100.000			-48.496			-6.928
54200.000			-48.494			-6.928
54301.000			-48.491			-6.927
54400.000			-48.489			-6.927
54500.000			-48.487			-6.927
54601.000			-48.486			-6.927
54701.000			-48.485			-6.926
54801.000			-48.484			-6.926
54901.000			-48.482			-6.926
55000.000			-48.480			-6.926
55100.000			-48.477			-6.925
55201.000			-48.475			-6.925
55300.000			-48.474			-6.925
55400.000			-48.473			-6.925
55502.000			-48.471			-6.924
55601.000			-48.470			-6.924
55700.000			-48.467			-6.924
55801.000			-48.465			-6.924
55900.000			-48.464			-6.923
56001.000			-48.462			-6.923
56100.000			-48.460			-6.923
56200.000			-48.459			-6.923
56301.000			-48.458			-6.923
56401.000			-48.457			-6.922
56501.000			-48.453			-6.922
56601.000			-48.452			-6.922
56700.000			-48.451			-6.922
56800.000			-48.449			-6.921
56901.000			-48.446			-6.921
57000.000			-48.445			-6.921
57100.000			-48.445			-6.921
57202.000			-48.443			-6.920
57301.000			-48.440			-6.920
57400.000			-48.438			-6.920
57501.000			-48.437			-6.920
57600.000			-48.436			-6.919
57700.000			-48.434			-6.919
57801.000			-48.432			-6.919
57900.000			-48.431			-6.919
58001.000			-48.428			-6.918
58102.000			-48.426			-6.918
58200.000			-48.425			-6.918
58300.000			-48.424			-6.918
58401.000			-48.422			-6.917
58500.000			-48.422			-6.917
58600.000			-48.420			-6.917
58701.000			-48.416			-6.917
58801.000			-48.415			-6.916
58901.000			-48.414			-6.916
59001.000			-48.413			-6.916
59100.000			-48.411			-6.916
59201.000			-48.409			-6.916
59300.000			-48.407			-6.915
59400.000			-48.407			-6.915
59501.000			-48.403			-6.915
59601.000			-48.402			-6.915
59701.000			-48.401			-6.914
59802.000			-48.399			-6.914
59900.000			-48.398			-6.914
60000.000			-48.396			-6.914
60101.000			-48.394			-6.913
60200.000			-48.393			-6.913
60300.000			-48.390			-6.913
60401.000			-48.389			-6.913
60501.000			-48.388			-6.913
60601.000			-48.388			-6.913
60701.000			-48.386			-6.912
60800.000			-48.385			-6.912
60900.000			-48.380			-6.911
61001.000			-48.379			-6.911
61100.000			-48.378			-6.911
61200.000			-48.377			-6.911
61302.000			-48.375			-6.911
61401.000			-48.374			-6.911
61500.000			-48.373			-6.910
61601.000			-48.371			-6.910
61700.000			-48.369			-6.910
61800.000			-48.367			-6.910
61901.000			-48.365			-6.909
62000.000			-48.365			-6.909
62101.000			-48.364			-6.909
62202.000			-48.363			-6.909
62300.000			-48.361			-6.909
62401.000			-48.357			-6.908
62500.000			-48.356			-6.908
62600.000			-48.355			-6.908
62701.000			-48.353			-6.908
62800.000			-48.351			-6.907
62901.000			-48.351			-6.907
63002.000			-48.350			-6.907
63101.000			-48.348			-6.907
63200.000			-48.345			-6.906
63301.000			-48.344			-6.906
63400.000			-48.343			-6.906
63500.000			-48.342			-6.906
63601.000			-48.341			-6.906
63701.000			-48.339			-6.906
63801.000			-48.337			-6.905
63902.000			-48.335			-6.905
64000.000			-48.334			-6.905
64100.000			-48.331			-6.904
64201.000			-48.330			-6.904
64300.000			-48.328			-6.904
64400.000			-48.328			-6.904
64501.000			-48.327			-6.904
64601.000			-48.322			-6.903
64701.000			-48.321			-6.903
64801.000			-48.322			-6.903
64900.000			-48.320			-6.903
65000.000			-48.319			-6.903
65101.000			-48.318			-6.903
65200.000			-48.316			-6.902
65300.000			-48.314			-6.902
65402.000			-48.312			-6.902
65501.000			-48.310			-6.901
65601.000			-48.309			-6.901
65700.000			-48.308			-6.901
65800.000			-48.306			-6.901
65901.000			-48.305			-6.901
66000.000			-48.303			-6.900
66100.000			-48.301			-6.900
66202.000			-48.301			-6.900
66301.000			-48.299			-6.900
66400.000			-48.296			-6.899
66501.000			-48.296			-6.899
66600.000			-48.294			-6.899
66700.000			-48.293			-6.899
66801.000			-48.291			-6.899
66900.000			-48.290			-6.899
67001.000			-48.289			-6.898
67102.000			-48.287			-6.898
67200.000			-48.286			-6.898
67300.000			-48.285			-6.898
67401.000			-48.283			-6.898
67500.000			-48.282			-6.897
67600.000			-48.280			-6.897
67701.000			-48.278			-6.897
67801.000			-48.277			-6.897
67901.000			-48.276			-6.897
68002.000			-48.274			-6.896
68100.000			-48.273			-6.896
68200.000			-48.272			-6.896
68301.000			-48.268			-6.895
68400.000			-48.267			-6.895
68500.000			-48.266			-6.895
68601.000			-48.265			-6.895
68701.000			-48.264			-6.895
68802.000			-48.262			-6.895
68901.000			-48.261			-6.894
69000.000			-48.260			-6.894
69101.000			-48.259			-6.894
69200.000			-48.257			-6.894
69300.000			-48.255			-6.894
69401.000			-48.254			-6.893
69500.000			-48.253			-6.893
69601.000			-48.252			-6.893
69702.000			-48.251			-6.893
69800.000			-48.250			-6.893
69900.000			-48.248			-6.893
70001.000			-48.245			-6.892
70100.000			-48.244			-6.892
70200.000			-48.242			-6.892
70301.000			-48.242			-6.892
70401.000			-48.241			-6.892
70501.000			-48.238			-6.891
70601.000			-48.237			-6.891
70700.000			-48.236			-6.891
70800.000			-48.236			-6.891
70901.000			-48.233			-6.890
71000.000			-48.232			-6.890
71100.000			-48.231			-6.890
71202.000			-48.228			-6.890
71301.000			-48.227			-6.890
71400.000			-48.226			-6.889
71501.000			-48.225			-6.889
71600.000			-48.223			-6.889
71700.000			-48.222			-6.889
71801.000			-48.222			-6.889
71900.000			-48.220			-6.889
72002.000			-48.216			-6.888
72101.000			-48.215			-6.888
72200.000			-48.214			-6.888
72301.000			-48.213			-6.888
72400.000			-48.213			-6.888
72500.000			-48.212			-6.887
72601.000			-48.211			-6.887
72700.000			-48.208			-6.887
72800.000			-48.207			-6.887
72902.000			-48.205			-6.886
73001.000			-48.204			-6.886
73100.000			-48.202			-6.886
73201.000			-48.202			-6.886
73300.000			-48.201			-6.886
73400.000			-48.199			-6.886
73501.000			-48.198			-6.885
73600.000			-48.197			-6.885
73701.000			-48.195			-6.885
73802.000			-48.193			-6.885
73900.000			-48.193			-6.885
74000.000			-48.192			-6.885
74101.000			-48.190			-6.884
74200.000			-48.188			-6.884
74300.000			-48.188			-6.884
74401.000			-48.187			-6.884
74501.000			-48.184			-6.883
74601.000			-48.184			-6.883
74701.000			-48.183			-6.883
74800.000			-48.181			-6.883
74900.000			-48.179			-6.883
75001.000			-48.178			-6.883
75100.000			-48.176			-6.882
75201.000			-48.175			-6.882
75301.000			-48.174			-6.882
75401.000			-48.173			-6.882
75501.000			-48.173			-6.882
75600.000			-48.171			-6.882
75700.000			-48.169			-6.881
75801.000			-48.168			-6.881
75900.000			-48.167			-6.881
76000.000			-48.164			-6.881
76101.000			-48.163			-6.880
76201.000			-48.162			-6.880
76301.000			-48.161			-6.880
76401.000			-48.160			-6.880
76500.000			-48.158			-6.880
76600.000			-48.158			-6.880
76701.000			-48.156			-6.879
76800.000			-48.155			-6.879
76900.000			-48.154			-6.879
77002.000			-48.153			-6.879
77101.000			-48.150			-6.879
77200.000			-48.149			-6.878
77301.000			-48.149			-6.878
77400.000			-48.148			-6.878
77500.000			-48.146			-6.878
77601.000			-48.144			-6.878
77700.000			-48.144			-6.878
77800.000			-48.143			-6.878
77902.000			-48.141			-6.877
78001.000			-48.139			-6.877
78100.000			-48.138			-6.877
78201.000			-48.138			-6.877
78300.000			-48.136			-6.877
78401.000			-48.135			-6.876
78500.000			-48.134			-6.876
78600.000			-48.131			-6.876
78702.000			-48.130			-6.876
78801.000			-48.130			-6.876
78900.000			-48.128			-6.875
79001.000			-48.126			-6.875
79100.000			-48.125			-6.875
79200.000			-48.123			-6.875
79301.000			-48.122			-6.875
79400.000			-48.121			-6.874
79501.000			-48.120			-6.874
79602.000			-48.119			-6.874
79701.000			-48.117			-6.874
79800.000			-48.116			-6.874
79901.000			-48.115			-6.874
80000.000			-48.115			-6.874
80100.000			-48.113			-6.873
80201.000			-48.112			-6.873
80301.000			-48.111			-6.873
80401.000			-48.110			-6.873
80502.000			-48.108			-6.873
80600.000			-48.107			-6.872
80700.000			-48.106			-6.872
80801.000			-48.104			-6.872
80900.000			-48.103			-6.872
81000.000			-48.101			-6.872
81102.000			-48.101			-6.872
81201.000			-48.100			-6.871
81300.000			-48.099			-6.871
81401.000			-48.098			-6.871
81500.000			-48.095			-6.871
81601.000			-48.094			-6.871
81700.000			-48.093			-6.870
81800.000			-48.092			-6.870
81901.000			-48.091			-6.870
82001.000			-48.090			-6.870
82101.000			-48.089			-6.870
82201.000			-48.088			-6.870
82300.000			-48.087			-6.870
82400.000			-48.086			-6.869
82501.000			-48.084			-6.869
82600.000			-48.084			-6.869
82700.000			-48.083			-6.869
82802.000			-48.080			-6.869
82901.000			-48.079			-6.868
83000.000			-48.078			-6.868
83101.000			-48.076			-6.868
83200.000			-48.075			-6.868
83300.000			-48.075			-6.868
83401.000			-48.073			-6.868
83500.000			-48.072			-6.867
83601.000			-48.070			-6.867
83702.000			-48.070			-6.867
83801.000			-48.069			-6.867
83900.000			-48.067			-6.867
84001.000			-48.066			-6.867
84100.000			-48.065			-6.866
84200.000			-48.064			-6.866
84301.000			-48.063			-6.866
84400.000			-48.063			-6.866
84501.000			-48.060			-6.866
84602.000			-48.058			-6.865
84700.000			-48.058			-6.865
84801.000			-48.057			-6.865
84900.000			-48.056			-6.865
85000.000			-48.055			-6.865
85101.000			-48.053			-6.865
85200.000			-48.052			-6.865
85301.000			-48.051			-6.864
85402.000			-48.049			-6.864
85500.000			-48.048			-6.864
85600.000			-48.048			-6.864
85701.000			-48.047			-6.864
85800.000			-48.045			-6.864
85900.000			-48.044			-6.863
86001.000			-48.042			-6.863
86101.000			-48.042			-6.863
86201.000			-48.041			-6.863
86301.000			-48.040			-6.863
86400.000			-48.039			-6.863
86500.000			-48.037			-6.862
86601.000			-48.037			-6.862
86700.000			-48.035			-6.862
86800.000			-48.034			-6.862
86901.000			-48.033			-6.862
87001.000			-48.032			-6.862
87101.000			-48.031			-6.862
87201.000			-48.030			-6.861
87300.000			-48.030			-6.861
87400.000			-48.027			-6.861
87501.000			-48.026			-6.861
87600.000			-48.025			-6.861
87700.000			-48.023			-6.860
87802.000			-48.023			-6.860
87901.000			-48.022			-6.860
88001.000			-48.020			-6.860
88100.000			-48.019			-6.860
88200.000			-48.017			-6.860
88301.000			-48.017			-6.860
88400.000			-48.017			-6.860
88500.000			-48.015			-6.859
88602.000			-48.014			-6.859
88701.000			-48.013			-6.859
88800.000			-48.011			-6.859
88901.000			-48.010			-6.859
89000.000			-48.009			-6.858
89100.000			-48.008			-6.858
89201.000			-48.007			-6.858
89300.000			-48.006			-6.858
89401.000			-48.005			-6.858
89502.000			-48.004			-6.858
89601.000			-48.002			-6.857
89700.000			-48.000			-6.857
89801.000			-48.000			-6.857
89900.000			-47.999			-6.857
90000.000			-47.998			-6.857
90101.000			-47.998			-6.857
90200.000			-47.996			-6.857
90301.000			-47.996			-6.857
90402.000			-47.994			-6.856
90500.000			-47.992			-6.856
90600.000			-47.990			-6.856
90701.000			-47.991			-6.856
90800.000			-47.990			-6.856
90900.000			-47.989			-6.856
91001.000			-47.988			-6.855
91100.000			-47.986			-6.855
91202.000			-47.985			-6.855
91301.000			-47.984			-6.855
91400.000			-47.983			-6.855
91501.000			-47.982			-6.855
91600.000			-47.981			-6.854
91700.000			-47.980			-6.854
91801.000			-47.978			-6.854
91900.000			-47.978			-6.854
92000.000			-47.977			-6.854
92102.000			-47.975			-6.854
92201.000			-47.974			-6.853
92300.000			-47.973			-6.853
92401.000			-47.972			-6.853
92500.000			-47.970			-6.853
92600.000			-47.969			-6.853
92701.000			-47.969			-6.853
92800.000			-47.967			-6.852
92901.000			-47.967			-6.852
93002.000			-47.967			-6.852
93100.000			-47.966			-6.852
93200.000			-47.965			-6.852
93301.000			-47.962			-6.852
93400.000			-47.962			-6.852
93500.000			-47.961			-6.852
93601.000			-47.959			-6.851
93700.000			-47.958			-6.851
93801.000			-47.956			-6.851
93902.000			-47.956			-6.851
94000.000			-47.955			-6.851
94100.000			-47.954			-6.851
94201.000			-47.952			-6.850
94300.000			-47.952			-6.850
94401.000			-47.952			-6.850
94500.000			-47.950			-6.850
94601.000			-47.948			-6.850
94702.000			-47.948			-6.850
94801.000			-47.947			-6.850
94900.000			-47.945			-6.849
95001.000			-47.945			-6.849
95100.000			-47.944			-6.849
95200.000			-47.942			-6.849
95301.000			-47.942			-6.849
95400.000			-47.941			-6.849
95501.000			-47.940			-6.849
95602.000			-47.939			-6.848
95700.000			-47.938			-6.848
95800.000			-47.937			-6.848
95901.000			-47.936			-6.848
96000.000			-47.935			-6.848
96100.000			-47.934			-6.848
96201.000			-47.933			-6.848
96301.000			-47.931			-6.847
96401.000			-47.929			-6.847
96502.000			-47.929			-6.847
96600.000			-47.929			-6.847
96700.000			-47.927			-6.847
96801.000			-47.927			-6.847
96900.000			-47.926			-6.847
97000.000			-47.925			-6.846
97101.000			-47.923			-6.846
97201.000			-47.923			-6.846
97301.000			-47.923			-6.846
97401.000			-47.921			-6.846
97500.000			-47.919			-6.846
97601.000			-47.918			-6.845
97700.000			-47.915			-6.845
97800.000			-47.916			-6.845
97901.000			-47.916			-6.845
98000.000			-47.914			-6.845
98101.000			-47.912			-6.845
98202.000			-47.912			-6.845
98300.000			-47.911			-6.844
98400.000			-47.910			-6.844
98501.000			-47.909			-6.844
98600.000			-47.908			-6.844
98700.000			-47.907			-6.844
98801.000			-47.906			-6.844
98901.000			-47.905			-6.844
99001.000			-47.905			-6.844
99102.000			-47.904			-6.843
99200.000			-47.904			-6.843
99300.000			-47.902			-6.843
99401.000			-47.901			-6.843
99500.000			-47.900			-6.843
99600.000			-47.898			-6.843
99701.000			-47.897			-6.842
99801.000			-47.896			-6.842
99901.000			-47.895			-6.842
100002.000			-47.895			-6.842
100100.000			-47.893			-6.842
100200.000			-47.892			-6.842
100301.000			-47.892			-6.842
100400.000			-47.891			-6.842
100500.000			-47.889			-6.841
100601.000			-47.888			-6.841
100701.000			-47.887			-6.841
100802.000			-47.886			-6.841
100900.000			-47.885			-6.841
101000.000			-47.885			-6.841
101101.000			-47.885			-6.841
101200.000			-47.884			-6.841
101300.000			-47.882			-6.840
101401.000			-47.881			-6.840
101501.000			-47.879			-6.840
101601.000			-47.878			-6.840
101702.000			-47.877			-6.840
101800.000			-47.876			-6.839
101900.000			-47.876			-6.839
102001.000			-47.876			-6.839
102100.000			-47.875			-6.839
102200.000			-47.873			-6.839
102301.000			-47.872			-6.839
102401.000			-47.870			-6.839
102501.000			-47.869			-6.838
102601.000			-47.869			-6.838
102700.000			-47.869			-6.838
102800.000			-47.866			-6.838
102901.000			-47.865			-6.838
103000.000			-47.864			-6.838
103100.000			-47.862			-6.837
103201.000			-47.863			-6.838
103301.000			-47.862			-6.837
103401.000			-47.861			-6.837
103501.000			-47.861			-6.837
103600.000			-47.860			-6.837
103700.000			-47.859			-6.837
103801.000			-47.858			-6.837
103900.000			-47.856			-6.837
104001.000			-47.854			-6.836
104101.000			-47.854			-6.836
104201.000			-47.853			-6.836
104302.000			-47.852			-6.836
104400.000			-47.851			-6.836
104500.000			-47.850			-6.836
104601.000			-47.849			-6.836
104700.000			-47.848			-6.835
104800.000			-47.848			-6.835
104901.000			-47.847			-6.835
105001.000			-47.844			-6.835
105101.000			-47.844			-6.835
105201.000			-47.844			-6.835
105300.000			-47.842			-6.835
105400.000			-47.841			-6.834
105501.000			-47.841			-6.834
105600.000			-47.841			-6.834
105700.000			-47.841			-6.834
105801.000			-47.838			-6.834
105901.000			-47.837			-6.834
106001.000			-47.837			-6.834
106101.000			-47.836			-6.834
106200.000			-47.836			-6.834
106300.000			-47.836			-6.834
106401.000			-47.834			-6.833
106500.000			-47.832			-6.833
106600.000			-47.831			-6.833
106702.000			-47.829			-6.833
106801.000			-47.829			-6.833
106901.000			-47.828			-6.833
107001.000			-47.828			-6.833
107100.000			-47.827			-6.832
107201.000			-47.825			-6.832
107300.000			-47.824			-6.832
107400.000			-47.824			-6.832
107501.000			-47.824			-6.832
107601.000			-47.822			-6.832
107701.000			-47.820			-6.831
107801.000			-47.820			-6.831
107900.000			-47.819			-6.831
108000.000			-47.819			-6.831
108101.000			-47.816			-6.831
108200.000			-47.816			-6.831
108300.000			-47.815			-6.831
108401.000			-47.814			-6.831
108501.000			-47.814			-6.831
108601.000			-47.813			-6.830
108701.000			-47.810			-6.830
108800.000			-47.810			-6.830
108900.000			-47.810			-6.830
109001.000			-47.808			-6.830
109100.000			-47.808			-6.830
109200.000			-47.807			-6.830
109301.000			-47.806			-6.829
109401.000			-47.805			-6.829
109501.000			-47.804			-6.829
109601.000			-47.803			-6.829
109700.000			-47.803			-6.829
109800.000			-47.801			-6.829
109901.000			-47.801			-6.829
110000.000			-47.801			-6.829
110100.000			-47.800			-6.829
110202.000			-47.798			-6.828
110301.000			-47.798			-6.828
110401.000			-47.795			-6.828
110500.000			-47.795			-6.828
110600.000			-47.795			-6.828
110701.000			-47.793			-6.828
110800.000			-47.792			-6.827
110900.000			-47.791			-6.827
111001.000			-47.790			-6.827
111101.000			-47.790			-6.827
111201.000			-47.789			-6.827
111301.000			-47.789			-6.827
111400.000			-47.788			-6.827
111500.000			-47.787			-6.827
111601.000			-47.786			-6.827
111700.000			-47.785			-6.826
111800.000			-47.784			-6.826
111902.000			-47.782			-6.826
112001.000			-47.782			-6.826
112101.000			-47.782			-6.826
112201.000			-47.781			-6.826
112300.000			-47.780			-6.826
112400.000			-47.778			-6.825
112501.000			-47.777			-6.825
112600.000			-47.776			-6.825
112700.000			-47.776			-6.825
112802.000			-47.775			-6.825
112901.000			-47.774			-6.825
113000.000			-47.773			-6.825
113101.000			-47.772			-6.825
113200.000			-47.771			-6.824
113300.000			-47.769			-6.824
113401.000			-47.769			-6.824
113500.000			-47.768			-6.824
113601.000			-47.768			-6.824
113701.000			-47.767			-6.824
113801.000			-47.767			-6.824
113901.000			-47.766			-6.824
114000.000			-47.764			-6.823
114100.000			-47.763			-6.823
114201.000			-47.762			-6.823
114300.000			-47.761			-6.823
114400.000			-47.761			-6.823
114502.000			-47.761			-6.823
114601.000			-47.760			-6.823
114701.000			-47.759			-6.823
114801.000			-47.757			-6.822
114900.000			-47.757			-6.822
115000.000			-47.757			-6.822
115101.000			-47.755			-6.822
115200.000			-47.754			-6.822
115300.000			-47.755			-6.822
115402.000			-47.753			-6.822
115501.000			-47.753			-6.822
115600.000			-47.752			-6.822
115701.000			-47.750			-6.821
115800.000			-47.750			-6.821
115900.000			-47.750			-6.821
116001.000			-47.750			-6.821
116100.000			-47.748			-6.821
116200.000			-47.747			-6.821
116302.000			-47.745			-6.821
116401.000			-47.745			-6.821
116500.000			-47.745			-6.821
116601.000			-47.743			-6.820
116700.000			-47.742			-6.820
116801.000			-47.742			-6.820
116900.000			-47.741			-6.820
117000.000			-47.739			-6.820
117101.000			-47.739			-6.820
117201.000			-47.739			-6.820
117301.000			-47.738			-6.820
117401.000			-47.737			-6.820
117500.000			-47.736			-6.819
117600.000			-47.736			-6.819
117701.000			-47.735			-6.819
117800.000			-47.734			-6.819
117900.000			-47.734			-6.819
118002.000			-47.732			-6.819
118101.000			-47.731			-6.819
118201.000			-47.730			-6.819
118301.000			-47.729			-6.818
118400.000			-47.728			-6.818
118500.000			-47.728			-6.818
118601.000			-47.726			-6.818
118700.000			-47.726			-6.818
118800.000			-47.725			-6.818
118902.000			-47.724			-6.818
119001.000			-47.724			-6.818
119100.000			-47.724			-6.818
119201.000			-47.722			-6.817
119300.000			-47.722			-6.817
119400.000			-47.721			-6.817
119501.000			-47.720			-6.817
119600.000			-47.720			-6.817
119700.000			-47.719			-6.817
119802.000			-47.717			-6.817
119901.000			-47.717			-6.817
120001.000			-47.715			-6.816
120100.000			-47.715			-6.816
120200.000			-47.715			-6.816
120301.000			-47.714			-6.816
120400.000			-47.713			-6.816
120500.000			-47.711			-6.816
120602.000			-47.712			-6.816
120701.000			-47.710			-6.816
120801.000			-47.709			-6.816
120901.000			-47.708			-6.815
121000.000			-47.707			-6.815
121100.000			-47.707			-6.815
121201.000			-47.704			-6.815
121300.000			-47.705			-6.815
121400.000			-47.705			-6.815
121502.000			-47.703			-6.815
121601.000			-47.702			-6.815
121700.000			-47.703			-6.815
121801.000			-47.703			-6.815
121900.000			-47.701			-6.814
122000.000			-47.699			-6.814
122101.000			-47.698			-6.814
122200.000			-47.697			-6.814
122301.000			-47.697			-6.814
122402.000			-47.697			-6.814
122501.000			-47.696			-6.814
122600.000			-47.695			-6.814
122701.000			-47.694			-6.813
122800.000			-47.693			-6.813
122900.000			-47.692			-6.813
123001.000			-47.692			-6.813
123100.000			-47.692			-6.813
123202.000			-47.691			-6.813
123301.000			-47.690			-6.813
123401.000			-47.688			-6.813
123501.000			-47.687			-6.812
123600.000			-47.686			-6.812
123700.000			-47.685			-6.812
123801.000			-47.684			-6.812
123900.000			-47.684			-6.812
124000.000			-47.684			-6.812
124102.000			-47.682			-6.812
124201.000			-47.681			-6.812
124301.000			-47.680			-6.811
124401.000			-47.680			-6.811
124500.000			-47.679			-6.811
124600.000			-47.679			-6.811
124701.000			-47.679			-6.811
124800.000			-47.678			-6.811
124900.000			-47.676			-6.811
125002.000			-47.676			-6.811
125101.000			-47.675			-6.811
125200.000			-47.674			-6.811
125301.000			-47.674			-6.811
125400.000			-47.673			-6.810
125500.000			-47.672			-6.810
125601.000			-47.671			-6.810
125700.000			-47.671			-6.810
125800.000			-47.669			-6.810
125902.000			-47.668			-6.810
126001.000			-47.668			-6.810
126100.000			-47.668			-6.810
126201.000			-47.668			-6.810
126300.000			-47.667			-6.810
126401.000			-47.665			-6.809
126500.000			-47.665			-6.809
126600.000			-47.663			-6.809
126701.000			-47.662			-6.809
126801.000			-47.662			-6.809
126901.000			-47.661			-6.809
127001.000			-47.661			-6.809
127100.000			-47.660			-6.809
127200.000			-47.659			-6.808
127301.000			-47.658			-6.808
127400.000			-47.658			-6.808
127500.000			-47.657			-6.808
127601.000			-47.656			-6.808
127701.000			-47.655			-6.808
127801.000			-47.653			-6.808
127901.000			-47.653			-6.808
128000.000			-47.654			-6.808
128100.000			-47.651			-6.807
128201.000			-47.651			-6.807
128300.000			-47.651			-6.807
128400.000			-47.651			-6.807
128502.000			-47.649			-6.807
128601.000			-47.649			-6.807
128701.000			-47.647			-6.807
128801.000			-47.646			-6.807
128900.000			-47.645			-6.806
129000.000			-47.645			-6.806
129101.000			-47.645			-6.806
129200.000			-47.644			-6.806
129300.000			-47.641			-6.806
129402.000			-47.641			-6.806
129501.000			-47.641			-6.806
129601.000			-47.640			-6.806
129700.000			-47.640			-6.806
129800.000			-47.639			-6.806
129901.000			-47.638			-6.805
130000.000			-47.637			-6.805
130100.000			-47.637			-6.805
130201.000			-47.636			-6.805
130301.000			-47.636			-6.805
130401.000			-47.635			-6.805
130501.000			-47.634			-6.805
130600.000			-47.633			-6.805
130700.000			-47.633			-6.805
130801.000			-47.632			-6.805
130900.000			-47.631			-6.804
131000.000			-47.630			-6.804
131102.000			-47.629			-6.804
131201.000			-47.629			-6.804
131301.000			-47.628			-6.804
131401.000			-47.627			-6.804
131500.000			-47.626			-6.804
131600.000			-47.626			-6.804
131701.000			-47.624			-6.803
131800.000			-47.624			-6.803
131900.000			-47.624			-6.803
132002.000			-47.623			-6.803
132101.000			-47.621			-6.803
132201.000			-47.620			-6.803
132301.000			-47.620			-6.803
132400.000			-47.620			-6.803
132500.000			-47.619			-6.803
132601.000			-47.618			-6.803
132700.000			-47.618			-6.803
132801.000			-47.617			-6.802
132900.000			-47.616			-6.802
133001.000			-47.615			-6.802
133102.000			-47.614			-6.802
133200.000			-47.613			-6.802
133300.000			-47.613			-6.802
133401.000			-47.612			-6.802
133500.000			-47.612			-6.802
133600.000			-47.611			-6.802
133701.000			-47.607			-6.801
133800.000			-47.607			-6.801
133901.000			-47.607			-6.801
134002.000			-47.607			-6.801
134100.000			-47.607			-6.801
134200.000			-47.606			-6.801
134301.000			-47.605			-6.801
134400.000			-47.605			-6.801
134500.000			-47.603			-6.800
134601.000			-47.604			-6.801
134700.000			-47.602			-6.800
134801.000			-47.601			-6.800
134902.000			-47.600			-6.800
135001.000			-47.600			-6.800
135100.000			-47.600			-6.800
135201.000			-47.598			-6.800
135300.000			-47.597			-6.800
135400.000			-47.597			-6.800
135501.000			-47.597			-6.800
135600.000			-47.596			-6.799
135700.000			-47.596			-6.799
135802.000			-47.595			-6.799
135901.000			-47.593			-6.799
136001.000			-47.593			-6.799
136100.000			-47.592			-6.799
136200.000			-47.591			-6.799
136301.000			-47.592			-6.799
136400.000			-47.591			-6.799
136500.000			-47.590			-6.799
136601.000			-47.589			-6.798
136701.000			-47.587			-6.798
136801.000			-47.587			-6.798
136902.000			-47.587			-6.798
137000.000			-47.586			-6.798
137100.000			-47.584			-6.798
137201.000			-47.584			-6.798
137300.000			-47.584			-6.798
137400.000			-47.582			-6.797
137501.000			-47.582			-6.797
137600.000			-47.581			-6.797
137701.000			-47.581			-6.797
137802.000			-47.581			-6.797
137900.000			-47.579			-6.797
138000.000			-47.578			-6.797
138101.000			-47.578			-6.797
138200.000			-47.577			-6.797
138300.000			-47.577			-6.797
138401.000			-47.576			-6.797
138500.000			-47.576			-6.797
138600.000			-47.575			-6.796
138702.000			-47.575			-6.796
138801.000			-47.574			-6.796
138900.000			-47.571			-6.796
139001.000			-47.571			-6.796
139100.000			-47.571			-6.796
139201.000			-47.569			-6.796
139300.000			-47.568			-6.795
139400.000			-47.569			-6.796
139501.000			-47.568			-6.795
139601.000			-47.567			-6.795
139701.000			-47.566			-6.795
139802.000			-47.565			-6.795
139900.000			-47.564			-6.795
140000.000			-47.564			-6.795
140101.000			-47.564			-6.795
140200.000			-47.563			-6.795
140300.000			-47.562			-6.795
140401.000			-47.562			-6.795
140500.000			-47.561			-6.794
140601.000			-47.560			-6.794
140702.000			-47.559			-6.794
140800.000			-47.558			-6.794
140900.000			-47.557			-6.794
141001.000			-47.557			-6.794
141100.000			-47.556			-6.794
141200.000			-47.556			-6.794
141301.000			-47.555			-6.794
141400.000			-47.554			-6.793
141501.000			-47.554			-6.793
141602.000			-47.554			-6.793
141701.000			-47.554			-6.793
141800.000			-47.551			-6.793
141901.000			-47.551			-6.793
142000.000			-47.551			-6.793
142100.000			-47.551			-6.793
142201.000			-47.550			-6.793
142300.000			-47.549			-6.793
142401.000			-47.548			-6.793
142501.000			-47.547			-6.792
142601.000			-47.547			-6.792
142701.000			-47.546			-6.792
142800.000			-47.545			-6.792
142900.000			-47.545			-6.792
143001.000			-47.544			-6.792
143100.000			-47.544			-6.792
143200.000			-47.544			-6.792
143301.000			-47.542			-6.792
143401.000			-47.541			-6.792
143501.000			-47.541			-6.792
143601.000			-47.540			-6.791
143700.000			-47.540			-6.791
143800.000			-47.539			-6.791
143901.000			-47.538			-6.791
144000.000			-47.537			-6.791
144100.000			-47.537			-6.791
144201.000			-47.536			-6.791
144301.000			-47.535			-6.791
144401.000			-47.535			-6.791
144501.000			-47.534			-6.791
144600.000			-47.533			-6.790
144700.000			-47.533			-6.790
144801.000			-47.532			-6.790
144900.000			-47.531			-6.790
145000.000			-47.530			-6.790
145101.000			-47.530			-6.790
145201.000			-47.530			-6.790
145301.000			-47.529			-6.790
145402.000			-47.528			-6.790
145500.000			-47.526			-6.789
145601.000			-47.525			-6.789
145700.000			-47.525			-6.789
145800.000			-47.526			-6.789
145901.000			-47.525			-6.789
146000.000			-47.524			-6.789
146100.000			-47.523			-6.789
146202.000			-47.523			-6.789
146301.000			-47.521			-6.789
146400.000			-47.520			-6.789
146501.000			-47.521			-6.789
146600.000			-47.521			-6.789
146700.000			-47.519			-6.788
146801.000			-47.518			-6.788
146900.000			-47.518			-6.788
147000.000			-47.517			-6.788
147102.000			-47.517			-6.788
147201.000			-47.515			-6.788
147301.000			-47.515			-6.788
147401.000			-47.515			-6.788
147500.000			-47.514			-6.788
147600.000			-47.514			-6.788
147701.000			-47.514			-6.788
147800.000			-47.513			-6.788
147900.000			-47.511			-6.787
148001.000			-47.510			-6.787
148101.000			-47.511			-6.787
148201.000			-47.510			-6.787
148301.000			-47.510			-6.787
148400.000			-47.508			-6.787
148500.000			-47.508			-6.787
148601.000			-47.507			-6.787
148700.000			-47.506			-6.787
148801.000			-47.506			-6.787
148900.000			-47.504			-6.786
149000.000			-47.504			-6.786
149102.000			-47.504			-6.786
149201.000			-47.503			-6.786
149300.000			-47.502			-6.786
149401.000			-47.502			-6.786
149500.000			-47.501			-6.786
149600.000			-47.501			-6.786
149701.000			-47.500			-6.786
149800.000			-47.499			-6.786
149900.000			-47.498			-6.785
150002.000			-47.496			-6.785
150101.000			-47.496			-6.785
150201.000			-47.496			-6.785
150301.000			-47.495			-6.785
150400.000			-47.495			-6.785
150500.000			-47.495			-6.785
150601.000			-47.494			-6.785
150700.000			-47.493			-6.785
150800.000			-47.493			-6.785
150901.000			-47.492			-6.785
151001.000			-47.492			-6.785
151101.000			-47.490			-6.784
151201.000			-47.489			-6.784
151300.000			-47.489			-6.784
151400.000			-47.488			-6.784
151501.000			-47.488			-6.784
151600.000			-47.487			-6.784
151700.000			-47.486			-6.784
151801.000			-47.486			-6.784
151901.000			-47.485			-6.784
152002.000			-47.485			-6.784
152101.000			-47.483			-6.783
152200.000			-47.483			-6.783
152301.000			-47.482			-6.783
152400.000			-47.482			-6.783
152500.000			-47.482			-6.783
152601.000			-47.482			-6.783
152700.000			-47.481			-6.783
152800.000			-47.479			-6.783
152902.000			-47.479			-6.783
153001.000			-47.478			-6.783
153100.000			-47.477			-6.782
153201.000			-47.477			-6.782
153300.000			-47.476			-6.782
153400.000			-47.475			-6.782
153501.000			-47.475			-6.782
153600.000			-47.474			-6.782
153700.000			-47.473			-6.782
153802.000			-47.473			-6.782
153901.000			-47.472			-6.782
154001.000			-47.471			-6.782
154101.000			-47.471			-6.782
154200.000			-47.470			-6.781
154300.000			-47.468			-6.781
154401.000			-47.468			-6.781
154500.000			-47.467			-6.781
154600.000			-47.466			-6.781
154701.000			-47.467			-6.781
154801.000			-47.466			-6.781
154901.000			-47.465			-6.781
155001.000			-47.464			-6.781
155100.000			-47.464			-6.781
155201.000			-47.464			-6.781
155300.000			-47.462			-6.780
155400.000			-47.462			-6.780
155501.000			-47.460			-6.780
155600.000			-47.460			-6.780
155701.000			-47.459			-6.780
155802.000			-47.458			-6.780
155901.000			-47.458			-6.780
156000.000			-47.457			-6.780
156101.000			-47.457			-6.780
156200.000			-47.457			-6.780
156300.000			-47.455			-6.779
156401.000			-47.455			-6.779
156500.000			-47.454			-6.779
156600.000			-47.453			-6.779
156702.000			-47.453			-6.779
156801.000			-47.453			-6.779
156900.000			-47.452			-6.779
157001.000			-47.451			-6.779
157100.000			-47.450			-6.779
157200.000			-47.450			-6.779
157301.000			-47.449			-6.778
157400.000			-47.448			-6.778
157500.000			-47.447			-6.778
157602.000			-47.447			-6.778
157701.000			-47.447			-6.778
157801.000			-47.447			-6.778
157901.000			-47.446			-6.778
158000.000			-47.445			-6.778
158100.000			-47.444			-6.778
158201.000			-47.444			-6.778
158300.000			-47.442			-6.777
158401.000			-47.441			-6.777
158500.000			-47.442			-6.777
158601.000			-47.442			-6.777
158702.000			-47.440			-6.777
158800.000			-47.440			-6.777
158900.000			-47.440			-6.777
159001.000			-47.439			-6.777
159100.000			-47.438			-6.777
159200.000			-47.437			-6.777
159301.000			-47.437			-6.777
159400.000			-47.437			-6.777
159501.000			-47.436			-6.777
159602.000			-47.435			-6.776
159701.000			-47.435			-6.776
159800.000			-47.435			-6.776
159901.000			-47.434			-6.776
160000.000			-47.434			-6.776
160100.000			-47.434			-6.776
160201.000			-47.432			-6.776
160300.000			-47.432			-6.776
160400.000			-47.431			-6.776
160502.000			-47.431			-6.776
160601.000			-47.430			-6.776
160700.000			-47.429			-6.776
160801.000			-47.428			-6.775
160900.000			-47.428			-6.775
161000.000			-47.428			-6.775
161101.000			-47.427			-6.775
161200.000			-47.427			-6.775
161300.000			-47.426			-6.775
161402.000			-47.426			-6.775
161501.000			-47.426			-6.775
161602.000			-47.424			-6.775
161700.000			-47.423			-6.775
161800.000			-47.423			-6.775
161901.000			-47.423			-6.775
162000.000			-47.423			-6.775
162100.000			-47.421			-6.774
162201.000			-47.420			-6.774
162301.000			-47.420			-6.774
162401.000			-47.420			-6.774
162502.000			-47.419			-6.774
162600.000			-47.418			-6.774
162700.000			-47.418			-6.774
162801.000			-47.417			-6.774
162900.000			-47.416			-6.774
163000.000			-47.415			-6.774
163101.000			-47.416			-6.774
163200.000			-47.415			-6.774
163301.000			-47.414			-6.773
163402.000			-47.413			-6.773
163500.000			-47.413			-6.773
163600.000			-47.413			-6.773
163701.000			-47.413			-6.773
163800.000			-47.411			-6.773
163900.000			-47.410			-6.773
164001.000			-47.410			-6.773
164100.000			-47.410			-6.773
164201.000			-47.409			-6.773
164302.000			-47.409			-6.773
164401.000			-47.409			-6.773
164500.000			-47.408			-6.773
164601.000			-47.405			-6.772
164700.000			-47.407			-6.772
164801.000			-47.406			-6.772
164900.000			-47.405			-6.772
165000.000			-47.405			-6.772
165101.000			-47.405			-6.772
165201.000			-47.404			-6.772
165301.000			-47.403			-6.772
165401.000			-47.402			-6.772
165500.000			-47.402			-6.772
165600.000			-47.401			-6.772
165701.000			-47.400			-6.771
165800.000			-47.400			-6.771
165900.000			-47.400			-6.771
166001.000			-47.399			-6.771
166101.000			-47.399			-6.771
166201.000			-47.399			-6.771
166301.000			-47.398			-6.771
166400.000			-47.397			-6.771
166500.000			-47.397			-6.771
166601.000			-47.396			-6.771
166700.000			-47.396			-6.771
166800.000			-47.394			-6.771
166901.000			-47.393			-6.770
167000.000			-47.393			-6.770
167101.000			-47.393			-6.770
167202.000			-47.393			-6.770
167300.000			-47.392			-6.770
167400.000			-47.391			-6.770
167501.000			-47.390			-6.770
167600.000			-47.389			-6.770
167700.000			-47.388			-6.770
167801.000			-47.388			-6.770
167900.000			-47.389			-6.770
168001.000			-47.388			-6.770
168101.000			-47.388			-6.770
168201.000			-47.388			-6.770
168301.000			-47.386			-6.769
168400.000			-47.385			-6.769
168500.000			-47.384			-6.769
168601.000			-47.384			-6.769
168700.000			-47.384			-6.769
168800.000			-47.384			-6.769
168901.000			-47.383			-6.769
169001.000			-47.381			-6.769
169101.000			-47.380			-6.769
169202.000			-47.380			-6.769
169300.000			-47.380			-6.769
169400.000			-47.380			-6.769
169501.000			-47.379			-6.768
169600.000			-47.379			-6.768
169700.000			-47.378			-6.768
169801.000			-47.377			-6.768
169900.000			-47.376			-6.768
170000.000			-47.376			-6.768
170102.000			-47.376			-6.768
170201.000			-47.375			-6.768
170300.000			-47.374			-6.768
170401.000			-47.374			-6.768
170500.000			-47.373			-6.768
170600.000			-47.373			-6.768
170701.000			-47.372			-6.767
170800.000			-47.371			-6.767
170900.000			-47.371			-6.767
171002.000			-47.370			-6.767
171101.000			-47.370			-6.767
171201.000			-47.369			-6.767
171300.000			-47.368			-6.767
171400.000			-47.368			-6.767
171501.000			-47.369			-6.767
171600.000			-47.367			-6.767
171700.000			-47.367			-6.767
171801.000			-47.367			-6.767
171901.000			-47.365			-6.766
172001.000			-47.365			-6.766
172102.000			-47.363			-6.766
172200.000			-47.362			-6.766
172300.000			-47.363			-6.766
172401.000			-47.363			-6.766
172500.000			-47.363			-6.766
172600.000			-47.363			-6.766
172701.000			-47.360			-6.766
172800.000			-47.359			-6.766
172901.000			-47.359			-6.766
173002.000			-47.359			-6.766
173100.000			-47.358			-6.765
173200.000			-47.359			-6.766
173301.000			-47.358			-6.765
173400.000			-47.357			-6.765
173500.000			-47.357			-6.765
173601.000			-47.355			-6.765
173700.000			-47.355			-6.765
173800.000			-47.355			-6.765
173902.000			-47.354			-6.765
174001.000			-47.353			-6.765
174100.000			-47.352			-6.765
174201.000			-47.352			-6.765
174300.000			-47.351			-6.764
174401.000			-47.351			-6.764
174500.000			-47.350			-6.764
174600.000			-47.350			-6.764
174701.000			-47.349			-6.764
174801.000			-47.349			-6.764
174901.000			-47.348			-6.764
175001.000			-47.348			-6.764
175100.000			-47.347			-6.764
175200.000			-47.346			-6.764
175301.000			-47.345			-6.764
175400.000			-47.345			-6.764
175500.000			-47.345			-6.764
175601.000			-47.343			-6.763
175701.000			-47.342			-6.763
175801.000			-47.342			-6.763
175902.000			-47.341			-6.763
176000.000			-47.341			-6.763
176100.000			-47.341			-6.763
176201.000			-47.341			-6.763
176300.000			-47.340			-6.763
176400.000			-47.339			-6.763
176501.000			-47.338			-6.763
176600.000			-47.338			-6.763
176701.000			-47.337			-6.762
176802.000			-47.337			-6.762
176901.000			-47.337			-6.762
177000.000			-47.338			-6.763
177101.000			-47.335			-6.762
177200.000			-47.335			-6.762
177300.000			-47.335			-6.762
177401.000			-47.335			-6.762
177500.000			-47.334			-6.762
177601.000			-47.333			-6.762
177701.000			-47.332			-6.762
177801.000			-47.332			-6.762
177901.000			-47.331			-6.762
178000.000			-47.331			-6.762
178100.000			-47.330			-6.761
178201.000			-47.330			-6.761
178300.000			-47.329			-6.761
178400.000			-47.328			-6.761
178501.000			-47.329			-6.761
178601.000			-47.327			-6.761
178701.000			-47.327			-6.761
178802.000			-47.327			-6.761
178900.000			-47.326			-6.761
179000.000			-47.325			-6.761
179101.000			-47.325			-6.761
179200.000			-47.324			-6.761
179300.000			-47.324			-6.761
179401.000			-47.323			-6.760
179500.000			-47.322			-6.760
179601.000			-47.322			-6.760
179702.000			-47.321			-6.760
179800.000			-47.321			-6.760
179900.000			-47.321			-6.760
180001.000			-47.320			-6.760
180100.000			-47.319			-6.760
180200.000			-47.318			-6.760
180301.000			-47.319			-6.760
180400.000			-47.318			-6.760
180501.000			-47.318			-6.760
180602.000			-47.316			-6.759
180701.000			-47.316			-6.759
180801.000			-47.316			-6.759
180900.000			-47.316			-6.759
181000.000			-47.315			-6.759
181101.000			-47.315			-6.759
181200.000			-47.314			-6.759
181300.000			-47.313			-6.759
181402.000			-47.313			-6.759
181501.000			-47.311			-6.759
181601.000			-47.311			-6.759
181701.000			-47.310			-6.759
181800.000			-47.310			-6.759
181900.000			-47.310			-6.759
182001.000			-47.309			-6.758
182100.000			-47.309			-6.758
182200.000			-47.307			-6.758
182301.000			-47.307			-6.758
182401.000			-47.305			-6.758
182501.000			-47.305			-6.758
182601.000			-47.305			-6.758
182700.000			-47.305			-6.758
182800.000			-47.304			-6.758
182901.000			-47.304			-6.758
183000.000			-47.304			-6.758
183100.000			-47.303			-6.758
183201.000			-47.301			-6.757
183301.000			-47.301			-6.757
183401.000			-47.301			-6.757
183501.000			-47.300			-6.757
183600.000			-47.300			-6.757
183700.000			-47.299			-6.757
183801.000			-47.298			-6.757
183900.000			-47.299			-6.757
184001.000			-47.298			-6.757
184100.000			-47.298			-6.757
184201.000			-47.297			-6.757
184302.000			-47.295			-6.756
184401.000			-47.296			-6.757
184500.000			-47.295			-6.756
184601.000			-47.295			-6.756
184700.000			-47.295			-6.756
184800.000			-47.294			-6.756
184901.000			-47.294			-6.756
185000.000			-47.293			-6.756
185100.000			-47.292			-6.756
185202.000			-47.292			-6.756
185301.000			-47.291			-6.756
185401.000			-47.290			-6.756
185501.000			-47.290			-6.756
185600.000			-47.289			-6.756
185700.000			-47.288			-6.755
185801.000			-47.289			-6.756
185900.000			-47.287			-6.755
186000.000			-47.286			-6.755
186101.000			-47.286			-6.755
186201.000			-47.286			-6.755
186301.000			-47.284			-6.755
186402.000			-47.284			-6.755
186500.000			-47.284			-6.755
186600.000			-47.283			-6.755
186701.000			-47.283			-6.755
186800.000			-47.282			-6.755
186900.000			-47.282			-6.755
187001.000			-47.281			-6.754
187100.000			-47.281			-6.754
187202.000			-47.281			-6.754
187301.000			-47.280			-6.754
187400.000			-47.280			-6.754
187501.000			-47.279			-6.754
187600.000			-47.279			-6.754
187700.000			-47.279			-6.754
187801.000			-47.278			-6.754
187900.000			-47.276			-6.754
188000.000			-47.275			-6.754
188101.000			-47.276			-6.754
188201.000			-47.275			-6.754
188301.000			-47.274			-6.753
188401.000			-47.275			-6.754
188500.000			-47.274			-6.753
188600.000			-47.273			-6.753
188701.000			-47.272			-6.753
188800.000			-47.272			-6.753
188900.000			-47.273			-6.753
189001.000			-47.272			-6.753
189101.000			-47.270			-6.753
189201.000			-47.270			-6.753
189302.000			-47.270			-6.753
189400.000			-47.270			-6.753
189500.000			-47.268			-6.753
189601.000			-47.268			-6.753
189700.000			-47.268			-6.753
189800.000			-47.268			-6.753
189901.000			-47.267			-6.752
190000.000			-47.266			-6.752
190100.000			-47.266			-6.752
190202.000			-47.266			-6.752
190301.000			-47.265			-6.752
190401.000			-47.265			-6.752
190500.000			-47.264			-6.752
190600.000			-47.263			-6.752
190701.000			-47.263			-6.752
190800.000			-47.262			-6.752
190900.000			-47.262			-6.752
191001.000			-47.261			-6.752
191101.000			-47.261			-6.752
191201.000			-47.260			-6.751
191301.000			-47.260			-6.751
191400.000			-47.260			-6.751
191500.000			-47.260			-6.751
191601.000			-47.259			-6.751
191700.000			-47.257			-6.751
191800.000			-47.256			-6.751
191901.000			-47.256			-6.751
192001.000			-47.256			-6.751
192101.000			-47.255			-6.751
192202.000			-47.254			-6.751
192300.000			-47.254			-6.751
192400.000			-47.254			-6.751
192501.000			-47.254			-6.751
192600.000			-47.253			-6.750
192700.000			-47.253			-6.750
192801.000			-47.253			-6.750
192900.000			-47.252			-6.750
193001.000			-47.251			-6.750
193102.000			-47.252			-6.750
193201.000			-47.250			-6.750
193300.000			-47.251			-6.750
193401.000			-47.250			-6.750
193500.000			-47.248			-6.750
193601.000			-47.247			-6.750
193700.000			-47.247			-6.750
193800.000			-47.246			-6.749
193902.000			-47.247			-6.750
194001.000			-47.246			-6.749
194101.000			-47.245			-6.749
194201.000			-47.244			-6.749
194300.000			-47.244			-6.749
194400.000			-47.243			-6.749
194501.000			-47.243			-6.749
194600.000			-47.242			-6.749
194700.000			-47.241			-6.749
194801.000			-47.241			-6.749
194901.000			-47.241			-6.749
195001.000			-47.240			-6.749
195101.000			-47.240			-6.749
195200.000			-47.240			-6.749
195300.000			-47.240			-6.749
195401.000			-47.239			-6.748
195500.000			-47.238			-6.748
195600.000			-47.237			-6.748
195701.000			-47.237			-6.748
195801.000			-47.237			-6.748
195901.000			-47.236			-6.748
196002.000			-47.236			-6.748
196100.000			-47.236			-6.748
196200.000			-47.234			-6.748
196301.000			-47.234			-6.748
196400.000			-47.234			-6.748
196500.000			-47.234			-6.748
196601.000			-47.232			-6.747
196700.000			-47.233			-6.748
196802.000			-47.232			-6.747
196901.000			-47.231			-6.747
197001.000			-47.230			-6.747
197101.000			-47.230			-6.747
197200.000			-47.230			-6.747
197300.000			-47.230			-6.747
197401.000			-47.228			-6.747
197500.000			-47.228			-6.747
197600.000			-47.229			-6.747
197701.000			-47.227			-6.747
197801.000			-47.226			-6.747
197901.000			-47.226			-6.747
198002.000			-47.226			-6.747
198100.000			-47.226			-6.747
198200.000			-47.225			-6.746
198301.000			-47.224			-6.746
198400.000			-47.223			-6.746
198500.000			-47.223			-6.746
198601.000			-47.222			-6.746
198700.000			-47.222			-6.746
198801.000			-47.222			-6.746
198902.000			-47.221			-6.746
199000.000			-47.221			-6.746
199100.000			-47.220			-6.746
199201.000			-47.220			-6.746
199300.000			-47.220			-6.746
199400.000			-47.219			-6.746
199501.000			-47.219			-6.746
199600.000			-47.218			-6.745
199701.000			-47.218			-6.745
199802.000			-47.217			-6.745
199901.000			-47.216			-6.745
200001.000			-47.215			-6.745
200100.000			-47.215			-6.745
200200.000			-47.216			-6.745
200301.000			-47.214			-6.745
200400.000			-47.213			-6.745
200500.000			-47.213			-6.745
200602.000			-47.213			-6.745
200701.000			-47.212			-6.745
200801.000			-47.211			-6.744
200901.000			-47.212			-6.745
201000.000			-47.210			-6.744
201100.000			-47.209			-6.744
201201.000			-47.210			-6.744
201300.000			-47.209			-6.744
201400.000			-47.208			-6.744
201502.000			-47.207			-6.744
201601.000			-47.207			-6.744
201701.000			-47.207			-6.744
201801.000			-47.207			-6.744
201900.000			-47.207			-6.744
202000.000			-47.205			-6.744
202101.000			-47.205			-6.744
202200.000			-47.205			-6.744
202300.000			-47.205			-6.744
202402.000			-47.204			-6.743
202501.000			-47.203			-6.743
202600.000			-47.202			-6.743
202701.000			-47.203			-6.743
202800.000			-47.201			-6.743
202900.000			-47.201			-6.743
203001.000			-47.200			-6.743
203100.000			-47.201			-6.743
203201.000			-47.201			-6.743
203301.000			-47.200			-6.743
203401.000			-47.199			-6.743
203501.000			-47.199			-6.743
203600.000			-47.197			-6.742
203700.000			-47.196			-6.742
203801.000			-47.197			-6.742
203900.000			-47.197			-6.742
204000.000			-47.196			-6.742
204101.000			-47.196			-6.742
204201.000			-47.195			-6.742
204301.000			-47.195			-6.742
204402.000			-47.194			-6.742
204500.000			-47.193			-6.742
204600.000			-47.193			-6.742
204701.000			-47.192			-6.742
204800.000			-47.192			-6.742
204900.000			-47.191			-6.742
205001.000			-47.191			-6.742
205100.000			-47.191			-6.742
205201.000			-47.190			-6.741
205302.000			-47.190			-6.741
205400.000			-47.190			-6.741
205500.000			-47.190			-6.741
205601.000			-47.189			-6.741
205700.000			-47.189			-6.741
205800.000			-47.189			-6.741
205901.000			-47.188			-6.741
206000.000			-47.187			-6.741
206101.000			-47.186			-6.741
206202.000			-47.186			-6.741
206301.000			-47.186			-6.741
206401.000			-47.185			-6.741
206500.000			-47.183			-6.740
206600.000			-47.183			-6.740
206701.000			-47.184			-6.741
206800.000			-47.183			-6.740
206900.000			-47.183			-6.740
207001.000			-47.183			-6.740
207101.000			-47.181			-6.740
207201.000			-47.181			-6.740
207301.000			-47.181			-6.740
207400.000			-47.181			-6.740
207500.000			-47.180			-6.740
207601.000			-47.180			-6.740
207700.000			-47.180			-6.740
207800.000			-47.179			-6.740
207901.000			-47.177			-6.740
208001.000			-47.178			-6.740
208101.000			-47.177			-6.740
208201.000			-47.176			-6.739
208300.000			-47.176			-6.739
208400.000			-47.176			-6.739
208501.000			-47.175			-6.739
208600.000			-47.174			-6.739
208700.000			-47.173			-6.739
208801.000			-47.173			-6.739
208901.000			-47.173			-6.739
209001.000			-47.173			-6.739
209101.000			-47.172			-6.739
209200.000			-47.172			-6.739
209300.000			-47.173			-6.739
209401.000			-47.170			-6.739
209500.000			-47.170			-6.739
209601.000			-47.170			-6.739
209700.000			-47.170			-6.739
209800.000			-47.169			-6.738
209902.000			-47.168			-6.738
210001.000			-47.169			-6.738
210100.000			-47.167			-6.738
210201.000			-47.167			-6.738
210300.000			-47.166			-6.738
210400.000			-47.166			-6.738
210501.000			-47.165			-6.738
210600.000			-47.165			-6.738
210700.000			-47.164			-6.738
210802.000			-47.163			-6.738
210901.000			-47.162			-6.737
211000.000			-47.162			-6.737
211101.000			-47.162			-6.737
211200.000			-47.161			-6.737
211300.000			-47.161			-6.737
211401.000			-47.161			-6.737
211500.000			-47.161			-6.737
211600.000			-47.159			-6.737
211702.000			-47.160			-6.737
211801.000			-47.161			-6.737
211900.000			-47.159			-6.737
212001.000			-47.159			-6.737
212100.000			-47.159			-6.737
212200.000			-47.158			-6.737
212301.000			-47.156			-6.737
212400.000			-47.155			-6.736
212500.000			-47.156			-6.737
212602.000			-47.156			-6.737
212701.000			-47.155			-6.736
212801.000			-47.155			-6.736
212900.000			-47.155			-6.736
213000.000			-47.154			-6.736
213101.000			-47.153			-6.736
213200.000			-47.153			-6.736
213300.000			-47.152			-6.736
213401.000			-47.153			-6.736
213500.000			-47.152			-6.736
213601.000			-47.151			-6.736
213702.000			-47.151			-6.736
213800.000			-47.150			-6.736
213900.000			-47.150			-6.736
214001.000			-47.149			-6.736
214100.000			-47.148			-6.735
214200.000			-47.148			-6.735
214301.000			-47.148			-6.735
214400.000			-47.147			-6.735
214501.000			-47.146			-6.735
214602.000			-47.145			-6.735
214701.000			-47.146			-6.735
214800.000			-47.146			-6.735
214901.000			-47.146			-6.735
215000.000			-47.144			-6.735
215100.000			-47.144			-6.735
215201.000			-47.143			-6.735
215300.000			-47.143			-6.735
215401.000			-47.143			-6.735
215502.000			-47.142			-6.735
215601.000			-47.140			-6.734
215700.000			-47.139			-6.734
215801.000			-47.140			-6.734
215900.000			-47.139			-6.734
216001.000			-47.139			-6.734
216100.000			-47.138			-6.734
216200.000			-47.138			-6.734
216301.000			-47.138			-6.734
216401.000			-47.137			-6.734
216501.000			-47.138			-6.734
216601.000			-47.137			-6.734
216700.000			-47.135			-6.734
216800.000			-47.135			-6.734
216901.000			-47.134			-6.733
217000.000			-47.134			-6.733
217100.000			-47.134			-6.733
217201.000			-47.133			-6.733
217301.000			-47.133			-6.733
217401.000			-47.133			-6.733
217501.000			-47.132			-6.733
217600.000			-47.132			-6.733
217700.000			-47.132			-6.733
217801.000			-47.131			-6.733
217900.000			-47.130			-6.733
218000.000			-47.130			-6.733
218101.000			-47.128			-6.733
218201.000			-47.129			-6.733
218301.000			-47.128			-6.733
218402.000			-47.128			-6.733
218500.000			-47.127			-6.732
218600.000			-47.127			-6.732
218701.000			-47.127			-6.732
218800.000			-47.126			-6.732
218900.000			-47.125			-6.732
219001.000			-47.124			-6.732
219101.000			-47.125			-6.732
219202.000			-47.125			-6.732
219301.000			-47.125			-6.732
219400.000			-47.124			-6.732
219501.000			-47.123			-6.732
219600.000			-47.123			-6.732
219700.000			-47.121			-6.732
219801.000			-47.122			-6.732
219900.000			-47.122			-6.732
220000.000			-47.122			-6.732
220102.000			-47.121			-6.732
220201.000			-47.120			-6.731
220300.000			-47.120			-6.731
220401.000			-47.119			-6.731
220500.000			-47.118			-6.731
220600.000			-47.118			-6.731
220701.000			-47.118			-6.731
220800.000			-47.118			-6.731
220900.000			-47.117			-6.731
221002.000			-47.116			-6.731
221101.000			-47.116			-6.731
221200.000			-47.115			-6.731
221301.000			-47.115			-6.731
221400.000			-47.114			-6.731
221500.000			-47.115			-6.731
221601.000			-47.115			-6.731
221700.000			-47.114			-6.731
221800.000			-47.114			-6.731
221902.000			-47.113			-6.730
222001.000			-47.112			-6.730
222100.000			-47.112			-6.730
222201.000			-47.112			-6.730
222300.000			-47.110			-6.730
222401.000			-47.110			-6.730
222500.000			-47.110			-6.730
222600.000			-47.110			-6.730
222701.000			-47.109			-6.730
222801.000			-47.108			-6.730
222901.000			-47.107			-6.730
223001.000			-47.108			-6.730
223100.000			-47.108			-6.730
223200.000			-47.108			-6.730
223301.000			-47.106			-6.729
223400.000			-47.105			-6.729
223500.000			-47.105			-6.729
223601.000			-47.105			-6.729
223701.000			-47.105			-6.729
223801.000			-47.105			-6.729
223901.000			-47.104			-6.729
224000.000			-47.104			-6.729
224100.000			-47.101			-6.729
224201.000			-47.101			-6.729
224300.000			-47.101			-6.729
224400.000			-47.101			-6.729
224501.000			-47.100			-6.729
224601.000			-47.100			-6.729
224701.000			-47.100			-6.729
224801.000			-47.100			-6.729
224900.000			-47.098			-6.728
225000.000			-47.099			-6.728
225101.000			-47.098			-6.728
225200.000			-47.098			-6.728
225300.000			-47.098			-6.728
225401.000			-47.097			-6.728
225501.000			-47.096			-6.728
225602.000			-47.096			-6.728
225701.000			-47.095			-6.728
225800.000			-47.095			-6.728
225901.000			-47.096			-6.728
226000.000			-47.094			-6.728
226100.000			-47.093			-6.728
226201.000			-47.093			-6.728
226300.000			-47.093			-6.728
226400.000			-47.093			-6.728
226502.000			-47.092			-6.727
226601.000			-47.091			-6.727
226701.000			-47.091			-6.727
226801.000			-47.091			-6.727
226900.000			-47.090			-6.727
227000.000			-47.089			-6.727
227101.000			-47.088			-6.727
227200.000			-47.088			-6.727
227300.000			-47.088			-6.727
227401.000			-47.088			-6.727
227501.000			-47.087			-6.727
227601.000			-47.087			-6.727
227701.000			-47.086			-6.727
227800.000			-47.086			-6.727
227900.000			-47.086			-6.727
228001.000			-47.085			-6.726
228100.000			-47.084			-6.726
228200.000			-47.084			-6.726
228301.000			-47.084			-6.726
228401.000			-47.084			-6.726
228501.000			-47.083			-6.726
228602.000			-47.083			-6.726
228700.000			-47.083			-6.726
228801.000			-47.083			-6.726
228900.000			-47.082			-6.726
229000.000			-47.081			-6.726
229101.000			-47.081			-6.726
229200.000			-47.080			-6.726
229300.000			-47.080			-6.726
229402.000			-47.079			-6.726
229501.000			-47.078			-6.725
229601.000			-47.078			-6.725
229701.000			-47.078			-6.725
229800.000			-47.078			-6.725
229900.000			-47.077			-6.725
230001.000			-47.077			-6.725
230100.000			-47.076			-6.725
230200.000			-47.075			-6.725
230302.000			-47.076			-6.725
230401.000			-47.075			-6.725
230501.000			-47.075			-6.725
230601.000			-47.075			-6.725
230700.000			-47.073			-6.725
230800.000			-47.073			-6.725
230901.000			-47.073			-6.725
231000.000			-47.074			-6.725
231100.000			-47.072			-6.725
231201.000			-47.072			-6.725
231301.000			-47.071			-6.724
231401.000			-47.071			-6.724
231501.000			-47.071			-6.724
231600.000			-47.070			-6.724
231700.000			-47.069			-6.724
231801.000			-47.068			-6.724
231900.000			-47.069			-6.724
232001.000			-47.069			-6.724
232100.000			-47.068			-6.724
232201.000			-47.067			-6.724
232302.000			-47.067			-6.724
232400.000			-47.067			-6.724
232500.000			-47.066			-6.724
232601.000			-47.065			-6.724
232700.000			-47.064			-6.723
232800.000			-47.065			-6.724
232901.000			-47.064			-6.723
233000.000			-47.063			-6.723
233101.000			-47.064			-6.723
233202.000			-47.064			-6.723
233301.000			-47.063			-6.723
233400.000			-47.061			-6.723
233501.000			-47.061			-6.723
233600.000			-47.061			-6.723
233700.000			-47.061			-6.723
233801.000			-47.060			-6.723
233900.000			-47.061			-6.723
234001.000			-47.061			-6.723
234102.000			-47.059			-6.723
234201.000			-47.059			-6.723
234300.000			-47.058			-6.723
234401.000			-47.058			-6.723
234500.000			-47.058			-6.723
234600.000			-47.058			-6.723
234701.000			-47.057			-6.722
234800.000			-47.056			-6.722
234900.000			-47.056			-6.722
235002.000			-47.056			-6.722
235101.000			-47.056			-6.722
235201.000			-47.054			-6.722
235300.000			-47.054			-6.722
235400.000			-47.054			-6.722
235501.000			-47.053			-6.722
235600.000			-47.052			-6.722
235700.000			-47.052			-6.722
235801.000			-47.052			-6.722
235901.000			-47.052			-6.722
236001.000			-47.051			-6.722
236101.000			-47.050			-6.721
236200.000			-47.051			-6.722
236300.000			-47.050			-6.721
236401.000			-47.050			-6.721
236500.000			-47.050			-6.721
236600.000			-47.048			-6.721
236701.000			-47.049			-6.721
236801.000			-47.048			-6.721
236901.000			-47.048			-6.721
237002.000			-47.047			-6.721
237100.000			-47.046			-6.721
237200.000			-47.046			-6.721
237301.000			-47.045			-6.721
237400.000			-47.045			-6.721
237500.000			-47.044			-6.721
237601.000			-47.044			-6.721
237700.000			-47.044			-6.721
237801.000			-47.044			-6.721
237902.000			-47.043			-6.720
238000.000			-47.042			-6.720
238100.000			-47.042			-6.720
238201.000			-47.042			-6.720
238300.000			-47.041			-6.720
238401.000			-47.042			-6.720
238500.000			-47.042			-6.720
238600.000			-47.040			-6.720
238702.000			-47.039			-6.720
238801.000			-47.039			-6.720
238901.000			-47.039			-6.720
239001.000			-47.039			-6.720
239100.000			-47.039			-6.720
239200.000			-47.038			-6.720
239301.000			-47.037			-6.720
239400.000			-47.037			-6.720
239500.000			-47.037			-6.720
239601.000			-47.036			-6.719
239701.000			-47.035			-6.719
239801.000			-47.034			-6.719
239901.000			-47.034			-6.719
240000.000			-47.035			-6.719
240100.000			-47.034			-6.719
240201.000			-47.034			-6.719
240300.000			-47.032			-6.719
240400.000			-47.033			-6.719
240501.000			-47.033			-6.719
240601.000			-47.032			-6.719
240701.000			-47.031			-6.719
240801.000			-47.031			-6.719
240900.000			-47.031			-6.719
241000.000			-47.029			-6.718
241101.000			-47.029			-6.718
241200.000			-47.029			-6.718
241300.000			-47.028			-6.718
241401.000			-47.028			-6.718
241501.000			-47.029			-6.718
241602.000			-47.027			-6.718
241700.000			-47.028			-6.718
241800.000			-47.027			-6.718
241901.000			-47.027			-6.718
242000.000			-47.026			-6.718
242100.000			-47.026			-6.718
242201.000			-47.025			-6.718
242300.000			-47.025			-6.718
242401.000			-47.025			-6.718
242502.000			-47.024			-6.718
242600.000			-47.023			-6.718
242700.000			-47.024			-6.718
242801.000			-47.023			-6.718
242900.000			-47.023			-6.718
243000.000			-47.022			-6.717
243101.000			-47.021			-6.717
243200.000			-47.021			-6.717
243301.000			-47.021			-6.717
243402.000			-47.021			-6.717
243500.000			-47.021			-6.717
243600.000			-47.020			-6.717
243701.000			-47.019			-6.717
243800.000			-47.019			-6.717
243900.000			-47.017			-6.717
244001.000			-47.017			-6.717
244100.000			-47.018			-6.717
244201.000			-47.018			-6.717
244302.000			-47.015			-6.716
244401.000			-47.016			-6.717
244500.000			-47.015			-6.716
244601.000			-47.015			-6.716
244700.000			-47.015			-6.716
244801.000			-47.014			-6.716
244900.000			-47.013			-6.716
245000.000			-47.013			-6.716
245102.000			-47.012			-6.716
245201.000			-47.012			-6.716
245301.000			-47.013			-6.716
245401.000			-47.012			-6.716
245500.000			-47.011			-6.716
245600.000			-47.011			-6.716
245701.000			-47.010			-6.716
245800.000			-47.010			-6.716
245900.000			-47.010			-6.716
246002.000			-47.010			-6.716
246101.000			-47.010			-6.716
246201.000			-47.010			-6.716
246301.000			-47.009			-6.716
246400.000			-47.008			-6.715
246500.000			-47.008			-6.715
246601.000			-47.007			-6.715
246700.000			-47.006			-6.715
246800.000			-47.007			-6.715
246901.000			-47.006			-6.715
247001.000			-47.005			-6.715
247101.000			-47.004			-6.715
247201.000			-47.005			-6.715
247300.000			-47.005			-6.715
247400.000			-47.005			-6.715
247501.000			-47.004			-6.715
247600.000			-47.004			-6.715
247700.000			-47.004			-6.715
247801.000			-47.003			-6.715
247901.000			-47.002			-6.715
248002.000			-47.001			-6.714
248100.000			-47.001			-6.714
248200.000			-47.001			-6.714
248301.000			-47.000			-6.714
248400.000			-46.999			-6.714
248500.000			-46.999			-6.714
248601.000			-47.000			-6.714
248700.000			-46.999			-6.714
248801.000			-46.999			-6.714
248902.000			-46.999			-6.714
249001.000			-46.997			-6.714
249100.000			-46.996			-6.714
249201.000			-46.996			-6.714
249300.000			-46.996			-6.714
249400.000			-46.996			-6.714
249501.000			-46.995			-6.714
249600.000			-46.996			-6.714
249700.000			-46.996			-6.714
249801.000			-46.994			-6.713
249901.000			-46.994			-6.713
250001.000			-46.994			-6.713
250101.000			-46.994			-6.713
250200.000			-46.992			-6.713
250300.000			-46.992			-6.713
250401.000			-46.991			-6.713
250500.000			-46.991			-6.713
250600.000			-46.990			-6.713
250701.000			-46.990			-6.713
250801.000			-46.990			-6.713
250901.000			-46.990			-6.713
251002.000			-46.990			-6.713
251100.000			-46.990			-6.713
251201.000			-46.988			-6.713
251300.000			-46.989			-6.713
251400.000			-46.988			-6.713
251501.000			-46.988			-6.713
251600.000			-46.987			-6.712
251700.000			-46.986			-6.712
251801.000			-46.986			-6.712
251901.000			-46.985			-6.712
252001.000			-46.986			-6.712
252101.000			-46.985			-6.712
252200.000			-46.984			-6.712
252300.000			-46.984			-6.712
252401.000			-46.984			-6.712
252500.000			-46.984			-6.712
252600.000			-46.983			-6.712
252701.000			-46.983			-6.712
252801.000			-46.982			-6.712
252901.000			-46.982			-6.712
253002.000			-46.981			-6.712
253100.000			-46.981			-6.712
253200.000			-46.980			-6.711
253301.000			-46.980			-6.711
253400.000			-46.980			-6.711
253500.000			-46.980			-6.711
253601.000			-46.979			-6.711
253700.000			-46.979			-6.711
253801.000			-46.979			-6.711
253902.000			-46.978			-6.711
254001.000			-46.977			-6.711
254100.000			-46.977			-6.711
254201.000			-46.975			-6.711
254300.000			-46.976			-6.711
254401.000			-46.977			-6.711
254500.000			-46.976			-6.711
254600.000			-46.975			-6.711
254701.000			-46.975			-6.711
254801.000			-46.975			-6.711
254901.000			-46.973			-6.710
255002.000			-46.973			-6.710
255100.000			-46.972			-6.710
255200.000			-46.972			-6.710
255301.000			-46.972			-6.710
255400.000			-46.971			-6.710
255500.000			-46.971			-6.710
255601.000			-46.971			-6.710
255700.000			-46.970			-6.710
255801.000			-46.970			-6.710
255902.000			-46.970			-6.710
256001.000			-46.969			-6.710
256100.000			-46.969			-6.710
256201.000			-46.969			-6.710
256300.000			-46.968			-6.710
256400.000			-46.968			-6.710
256501.000			-46.967			-6.710
256600.000			-46.967			-6.710
256700.000			-46.967			-6.710
256802.000			-46.967			-6.710
256901.000			-46.966			-6.709
257001.000			-46.965			-6.709
257101.000			-46.964			-6.709
257200.000			-46.964			-6.709
257300.000			-46.964			-6.709
257401.000			-46.963			-6.709
257500.000			-46.962			-6.709
257601.000			-46.963			-6.709
257700.000			-46.963			-6.709
257801.000			-46.962			-6.709
257902.000			-46.962			-6.709
258001.000			-46.961			-6.709
258100.000			-46.961			-6.709
258201.000			-46.961			-6.709
258300.000			-46.960			-6.709
258400.000			-46.960			-6.709
258501.000			-46.959			-6.708
258600.000			-46.958			-6.708
258700.000			-46.958			-6.708
258802.000			-46.958			-6.708
258901.000			-46.958			-6.708
259001.000			-46.957			-6.708
259101.000			-46.957			-6.708
259200.000			-46.957			-6.708
259300.000			-46.955			-6.708
259401.000			-46.956			-6.708
259500.000			-46.957			-6.708
259600.000			-46.956			-6.708
259701.000			-46.955			-6.708
259801.000			-46.954			-6.708
259901.000			-46.954			-6.708
260002.000			-46.954			-6.708
260100.000			-46.954			-6.708
260200.000			-46.954			-6.708
260301.000			-46.952			-6.707
260400.000			-46.952			-6.707
260500.000			-46.952			-6.707
260601.000			-46.953			-6.708
260701.000			-46.952			-6.707
260802.000			-46.951			-6.707
260901.000			-46.950			-6.707
261000.000			-46.950			-6.707
261101.000			-46.950			-6.707
261200.000			-46.949			-6.707
261300.000			-46.949			-6.707
261401.000			-46.948			-6.707
261500.000			-46.947			-6.707
261600.000			-46.947			-6.707
261702.000			-46.947			-6.707
261801.000			-46.947			-6.707
261901.000			-46.946			-6.707
262001.000			-46.947			-6.707
262100.000			-46.946			-6.707
262200.000			-46.943			-6.706
262301.000			-46.944			-6.706
262400.000			-46.944			-6.706
262500.000			-46.944			-6.706
262601.000			-46.943			-6.706
262701.000			-46.942			-6.706
262801.000			-46.943			-6.706
262901.000			-46.942			-6.706
263000.000			-46.942			-6.706
263100.000			-46.941			-6.706
263201.000			-46.940			-6.706
263300.000			-46.940			-6.706
263400.000			-46.940			-6.706
263501.000			-46.940			-6.706
263601.000			-46.939			-6.706
263701.000			-46.939			-6.706
263802.000			-46.938			-6.705
263900.000			-46.937			-6.705
264001.000			-46.937			-6.705
264100.000			-46.937			-6.705
264200.000			-46.937			-6.705
264301.000			-46.936			-6.705
264400.000			-46.936			-6.705
264500.000			-46.936			-6.705
264602.000			-46.935			-6.705
264701.000			-46.935			-6.705
264801.000			-46.935			-6.705
264901.000			-46.934			-6.705
265000.000			-46.934			-6.705
265100.000			-46.934			-6.705
265201.000			-46.934			-6.705
265300.000			-46.933			-6.705
265400.000			-46.933			-6.705
265501.000			-46.932			-6.705
265601.000			-46.931			-6.704
265701.000			-46.931			-6.704
265801.000			-46.931			-6.704
265900.000			-46.930			-6.704
266000.000			-46.931			-6.704
266101.000			-46.931			-6.704
266200.000			-46.930			-6.704
266300.000			-46.929			-6.704
266401.000			-46.929			-6.704
266501.000			-46.928			-6.704
266601.000			-46.928			-6.704
266702.000			-46.928			-6.704
266800.000			-46.929			-6.704
266900.000			-46.928			-6.704
267001.000			-46.927			-6.704
267100.000			-46.926			-6.704
267201.000			-46.926			-6.704
267300.000			-46.926			-6.704
267400.000			-46.924			-6.703
267502.000			-46.925			-6.704
267601.000			-46.924			-6.703
267701.000			-46.924			-6.703
267801.000			-46.924			-6.703
267900.000			-46.922			-6.703
268000.000			-46.923			-6.703
268101.000			-46.922			-6.703
268200.000			-46.922			-6.703
268300.000			-46.922			-6.703
268401.000			-46.921			-6.703
268501.000			-46.921			-6.703
268601.000			-46.921			-6.703
268701.000			-46.921			-6.703
268800.000			-46.920			-6.703
268900.000			-46.921			-6.703
269001.000			-46.920			-6.703
269100.000			-46.918			-6.703
269200.000			-46.917			-6.702
269301.000			-46.918			-6.703
269400.000			-46.918			-6.703
269501.000			-46.918			-6.703
269602.000			-46.917			-6.702
269700.000			-46.916			-6.702
269800.000			-46.916			-6.702
269901.000			-46.917			-6.702
270000.000			-46.915			-6.702
270100.000			-46.914			-6.702
270201.000			-46.915			-6.702
270300.000			-46.914			-6.702
270402.000			-46.914			-6.702
270501.000			-46.914			-6.702
270601.000			-46.914			-6.702
270701.000			-46.913			-6.702
270800.000			-46.912			-6.702
270900.000			-46.912			-6.702
271001.000			-46.911			-6.702
271100.000			-46.912			-6.702
271200.000			-46.911			-6.702
271301.000			-46.911			-6.702
271401.000			-46.911			-6.702
271501.000			-46.910			-6.701
271601.000			-46.910			-6.701
271700.000			-46.908			-6.701
271800.000			-46.909			-6.701
271901.000			-46.907			-6.701
272000.000			-46.907			-6.701
272100.000			-46.907			-6.701
272201.000			-46.907			-6.701
272301.000			-46.907			-6.701
272401.000			-46.906			-6.701
272502.000			-46.905			-6.701
272600.000			-46.906			-6.701
272700.000			-46.906			-6.701
272801.000			-46.904			-6.701
272900.000			-46.904			-6.701
273000.000			-46.905			-6.701
273101.000			-46.905			-6.701
273200.000			-46.904			-6.701
273301.000			-46.905			-6.701
273402.000			-46.903			-6.700
273500.000			-46.902			-6.700
273601.000			-46.902			-6.700
273700.000			-46.902			-6.700
273800.000			-46.902			-6.700
273901.000			-46.901			-6.700
274000.000			-46.901			-6.700
274100.000			-46.900			-6.700
274202.000			-46.901			-6.700
274301.000			-46.901			-6.700
274401.000			-46.900			-6.700
274501.000			-46.899			-6.700
274600.000			-46.899			-6.700
274700.000			-46.898			-6.700
274801.000			-46.898			-6.700
274900.000			-46.898			-6.700
275000.000			-46.897			-6.700
275101.000			-46.897			-6.700
275201.000			-46.896			-6.699
275301.000			-46.895			-6.699
275402.000			-46.895			-6.699
275500.000			-46.894			-6.699
275600.000			-46.895			-6.699
275701.000			-46.894			-6.699
275800.000			-46.893			-6.699
275900.000			-46.893			-6.699
276001.000			-46.894			-6.699
276100.000			-46.893			-6.699
276201.000			-46.893			-6.699
276302.000			-46.891			-6.699
276401.000			-46.892			-6.699
276500.000			-46.892			-6.699
276601.000			-46.892			-6.699
276700.000			-46.892			-6.699
276801.000			-46.890			-6.699
276900.000			-46.890			-6.699
277000.000			-46.890			-6.699
277101.000			-46.891			-6.699
277201.000			-46.891			-6.699
277301.000			-46.889			-6.698
277402.000			-46.888			-6.698
277500.000			-46.888			-6.698
277600.000			-46.888			-6.698
277701.000			-46.887			-6.698
277800.000			-46.887			-6.698
277900.000			-46.887			-6.698
278001.000			-46.886			-6.698
278100.000			-46.886			-6.698
278200.000			-46.886			-6.698
278302.000			-46.885			-6.698
278401.000			-46.884			-6.698
278500.000			-46.885			-6.698
278601.000			-46.885			-6.698
278700.000			-46.884			-6.698
278800.000			-46.883			-6.698
278901.000			-46.883			-6.698
279000.000			-46.883			-6.698
279100.000			-46.881			-6.697
279201.000			-46.881			-6.697
279301.000			-46.881			-6.697
279401.000			-46.882			-6.697
279501.000			-46.882			-6.697
279600.000			-46.880			-6.697
279700.000			-46.879			-6.697
279801.000			-46.880			-6.697
279900.000			-46.880			-6.697
280001.000			-46.880			-6.697
280100.000			-46.879			-6.697
280200.000			-46.879			-6.697
280302.000			-46.879			-6.697
280401.000			-46.879			-6.697
280501.000			-46.879			-6.697
280601.000			-46.877			-6.697
280700.000			-46.877			-6.697
280800.000			-46.876			-6.697
280901.000			-46.875			-6.696
281000.000			-46.875			-6.696
281100.000			-46.875			-6.696
281201.000			-46.876			-6.697
281301.000			-46.875			-6.696
281401.000			-46.875			-6.696
281501.000			-46.874			-6.696
281600.000			-46.872			-6.696
281700.000			-46.873			-6.696
281801.000			-46.873			-6.696
281900.000			-46.873			-6.696
282000.000			-46.873			-6.696
282101.000			-46.872			-6.696
282201.000			-46.872			-6.696
282301.000			-46.871			-6.696
282402.000			-46.870			-6.696
282500.000			-46.869			-6.696
282600.000			-46.870			-6.696
282701.000			-46.869			-6.696
282800.000			-46.870			-6.696
282900.000			-46.869			-6.696
283001.000			-46.869			-6.696
283100.000			-46.868			-6.695
283202.000			-46.868			-6.695
283301.000			-46.868			-6.695
283401.000			-46.868			-6.695
283501.000			-46.867			-6.695
283600.000			-46.867			-6.695
283700.000			-46.866			-6.695
283801.000			-46.865			-6.695
283900.000			-46.865			-6.695
284000.000			-46.864			-6.695
284101.000			-46.865			-6.695
284201.000			-46.863			-6.695
284301.000			-46.864			-6.695
284402.000			-46.863			-6.695
284500.000			-46.863			-6.695
284600.000			-46.863			-6.695
284701.000			-46.863			-6.695
284800.000			-46.863			-6.695
284900.000			-46.861			-6.694
285001.000			-46.861			-6.694
285100.000			-46.862			-6.695
285201.000			-46.861			-6.694
285302.000			-46.860			-6.694
285400.000			-46.861			-6.694
285500.000			-46.860			-6.694
285601.000			-46.861			-6.694
285700.000			-46.859			-6.694
285800.000			-46.859			-6.694
285901.000			-46.858			-6.694
286000.000			-46.858			-6.694
286100.000			-46.857			-6.694
286202.000			-46.856			-6.694
286301.000			-46.856			-6.694
286401.000			-46.855			-6.694
286500.000			-46.855			-6.694
286600.000			-46.855			-6.694
286701.000			-46.856			-6.694
286800.000			-46.855			-6.694
286900.000			-46.854			-6.693
287001.000			-46.854			-6.693
287100.000			-46.855			-6.694
287201.000			-46.854			-6.693
287302.000			-46.854			-6.693
287401.000			-46.853			-6.693
287500.000			-46.852			-6.693
287601.000			-46.853			-6.693
287700.000			-46.853			-6.693
287800.000			-46.852			-6.693
287901.000			-46.852			-6.693
288000.000			-46.852			-6.693
288100.000			-46.851			-6.693
288202.000			-46.851			-6.693
288301.000			-46.850			-6.693
288400.000			-46.850			-6.693
288501.000			-46.850			-6.693
288600.000			-46.849			-6.693
288700.000			-46.850			-6.693
288801.000			-46.849			-6.693
288900.000			-46.848			-6.693
289000.000			-46.848			-6.693
289101.000			-46.847			-6.692
289201.000			-46.846			-6.692
289301.000			-46.847			-6.692
289401.000			-46.846			-6.692
289500.000			-46.846			-6.692
289601.000			-46.845			-6.692
289700.000			-46.846			-6.692
289800.000			-46.846			-6.692
289901.000			-46.845			-6.692
290000.000			-46.844			-6.692
290100.000			-46.843			-6.692
290202.000			-46.843			-6.692
290301.000			-46.843			-6.692
290400.000			-46.843			-6.692
290501.000			-46.843			-6.692
290600.000			-46.842			-6.692
290700.000			-46.842			-6.692
290801.000			-46.840			-6.691
290900.000			-46.840			-6.691
291000.000			-46.840			-6.691
291102.000			-46.839			-6.691
291201.000			-46.839			-6.691
291301.000			-46.839			-6.691
291401.000			-46.838			-6.691
291500.000			-46.838			-6.691
291600.000			-46.837			-6.691
291701.000			-46.837			-6.691
291800.000			-46.837			-6.691
291900.000			-46.836			-6.691
292001.000			-46.835			-6.691
292101.000			-46.835			-6.691
292201.000			-46.835			-6.691
292301.000			-46.835			-6.691
292400.000			-46.835			-6.691
292500.000			-46.834			-6.691
292601.000			-46.834			-6.691
292700.000			-46.833			-6.690
292801.000			-46.832			-6.690
292900.000			-46.833			-6.690
293001.000			-46.833			-6.690
293102.000			-46.833			-6.690
293201.000			-46.832			-6.690
293300.000			-46.831			-6.690
293401.000			-46.832			-6.690
293500.000			-46.832			-6.690
293600.000			-46.830			-6.690
293701.000			-46.830			-6.690
293800.000			-46.830			-6.690
293900.000			-46.829			-6.690
294002.000			-46.829			-6.690
294101.000			-46.828			-6.690
294200.000			-46.827			-6.690
294301.000			-46.828			-6.690
294400.000			-46.828			-6.690
294500.000			-46.826			-6.689
294601.000			-46.826			-6.689
294700.000			-46.827			-6.690
294800.000			-46.826			-6.689
294902.000			-46.826			-6.689
295001.000			-46.825			-6.689
295101.000			-46.825			-6.689
295201.000			-46.826			-6.689
295300.000			-46.824			-6.689
295400.000			-46.824			-6.689
295501.000			-46.823			-6.689
295600.000			-46.824			-6.689
295700.000			-46.823			-6.689
295801.000			-46.823			-6.689
295901.000			-46.823			-6.689
296002.000			-46.822			-6.689
296101.000			-46.821			-6.689
296200.000			-46.821			-6.689
296301.000			-46.821			-6.689
296400.000			-46.821			-6.689
296500.000			-46.820			-6.689
296601.000			-46.820			-6.689
296700.000			-46.820			-6.689
296800.000			-46.818			-6.688
296902.000			-46.818			-6.688
297001.000			-46.819			-6.688
297100.000			-46.819			-6.688
297201.000			-46.818			-6.688
297300.000			-46.818			-6.688
297400.000			-46.817			-6.688
297501.000			-46.817			-6.688
297600.000			-46.817			-6.688
297700.000			-46.817			-6.688
297801.000			-46.816			-6.688
297901.000			-46.816			-6.688
298001.000			-46.815			-6.688
298101.000			-46.815			-6.688
298200.000			-46.814			-6.688
298300.000			-46.814			-6.688
298401.000			-46.814			-6.688
298500.000			-46.813			-6.688
298600.000			-46.813			-6.688
298701.000			-46.812			-6.687
298800.000			-46.812			-6.687
298901.000			-46.812			-6.687
299002.000			-46.812			-6.687
299100.000			-46.811			-6.687
299201.000			-46.811			-6.687
299300.000			-46.810			-6.687
299400.000			-46.810			-6.687
299501.000			-46.810			-6.687
299600.000			-46.809			-6.687
299700.000			-46.809			-6.687
299802.000			-46.809			-6.687
299901.000			-46.808			-6.687
