# Acquired on 20/12/2023 14:42:31 
# SPIDER: Creep_5mm_0771453C
# CREEP MEASUREMENT

# time [ms]		force [N]		stiffness [N/mm]
0.000			-26.957			-5.391
100.000			-29.721			-5.944
202.000			-30.994			-6.199
301.000			-31.212			-6.242
400.000			-31.022			-6.204
501.000			-30.954			-6.191
600.000			-30.896			-6.179
700.000			-30.846			-6.169
801.000			-30.802			-6.160
901.000			-30.762			-6.152
1001.000			-30.726			-6.145
1101.000			-30.663			-6.133
1200.000			-30.635			-6.127
1300.000			-30.609			-6.122
1401.000			-30.585			-6.117
1500.000			-30.561			-6.112
1600.000			-30.540			-6.108
1702.000			-30.519			-6.104
1801.000			-30.481			-6.096
1900.000			-30.463			-6.093
2000.000			-30.445			-6.089
2100.000			-30.428			-6.086
2201.000			-30.413			-6.083
2300.000			-30.397			-6.079
2401.000			-30.382			-6.076
2502.000			-30.368			-6.074
2600.000			-30.341			-6.068
2700.000			-30.329			-6.066
2801.000			-30.316			-6.063
2900.000			-30.304			-6.061
3000.000			-30.291			-6.058
3102.000			-30.280			-6.056
3201.000			-30.269			-6.054
3301.000			-30.248			-6.050
3401.000			-30.237			-6.047
3500.000			-30.227			-6.045
3600.000			-30.218			-6.044
3701.000			-30.208			-6.042
3800.000			-30.199			-6.040
3901.000			-30.188			-6.038
4002.000			-30.170			-6.034
4100.000			-30.163			-6.033
4200.000			-30.154			-6.031
4301.000			-30.146			-6.029
4400.000			-30.138			-6.028
4500.000			-30.130			-6.026
4601.000			-30.122			-6.024
4701.000			-30.113			-6.023
4801.000			-30.100			-6.020
4901.000			-30.093			-6.019
5000.000			-30.085			-6.017
5100.000			-30.078			-6.016
5200.000			-30.072			-6.014
5300.000			-30.065			-6.013
5402.000			-30.057			-6.011
5501.000			-30.044			-6.009
5600.000			-30.039			-6.008
5701.000			-30.032			-6.006
5800.000			-30.026			-6.005
5900.000			-30.021			-6.004
6001.000			-30.015			-6.003
6100.000			-30.009			-6.002
6201.000			-29.997			-5.999
6302.000			-29.991			-5.998
6400.000			-29.986			-5.997
6500.000			-29.981			-5.996
6601.000			-29.976			-5.995
6700.000			-29.970			-5.994
6800.000			-29.965			-5.993
6901.000			-29.958			-5.992
7001.000			-29.948			-5.990
7101.000			-29.943			-5.989
7201.000			-29.939			-5.988
7300.000			-29.934			-5.987
7400.000			-29.929			-5.986
7501.000			-29.924			-5.985
7600.000			-29.920			-5.984
7700.000			-29.910			-5.982
7802.000			-29.905			-5.981
7901.000			-29.901			-5.980
8000.000			-29.898			-5.980
8101.000			-29.893			-5.979
8200.000			-29.888			-5.978
8300.000			-29.884			-5.977
8400.000			-29.876			-5.975
8500.000			-29.871			-5.974
8602.000			-29.866			-5.973
8701.000			-29.863			-5.973
8800.000			-29.859			-5.972
8901.000			-29.855			-5.971
9000.000			-29.851			-5.970
9100.000			-29.847			-5.969
9201.000			-29.839			-5.968
9300.000			-29.835			-5.967
9401.000			-29.831			-5.966
9502.000			-29.827			-5.965
9600.000			-29.824			-5.965
9700.000			-29.819			-5.964
9801.000			-29.815			-5.963
9900.000			-29.809			-5.962
10000.000			-29.807			-5.961
10101.000			-29.803			-5.961
10201.000			-29.799			-5.960
10301.000			-29.795			-5.959
10401.000			-29.791			-5.958
10500.000			-29.788			-5.958
10600.000			-29.781			-5.956
10701.000			-29.777			-5.955
10800.000			-29.774			-5.955
10900.000			-29.772			-5.954
11001.000			-29.769			-5.954
11101.000			-29.765			-5.953
11201.000			-29.762			-5.952
11301.000			-29.760			-5.952
11400.000			-29.752			-5.950
11500.000			-29.749			-5.950
11600.000			-29.745			-5.949
11700.000			-29.743			-5.949
11801.000			-29.740			-5.948
11901.000			-29.737			-5.947
12001.000			-29.734			-5.947
12101.000			-29.728			-5.946
12200.000			-29.725			-5.945
12300.000			-29.722			-5.944
12401.000			-29.719			-5.944
12500.000			-29.716			-5.943
12600.000			-29.714			-5.943
12702.000			-29.711			-5.942
12801.000			-29.705			-5.941
12900.000			-29.702			-5.940
13001.000			-29.699			-5.940
13100.000			-29.697			-5.939
13200.000			-29.695			-5.939
13301.000			-29.692			-5.938
13400.000			-29.690			-5.938
13501.000			-29.686			-5.937
13602.000			-29.681			-5.936
13700.000			-29.679			-5.936
13800.000			-29.676			-5.935
13901.000			-29.674			-5.935
14000.000			-29.671			-5.934
14100.000			-29.669			-5.934
14201.000			-29.666			-5.933
14301.000			-29.660			-5.932
14401.000			-29.657			-5.931
14502.000			-29.656			-5.931
14600.000			-29.654			-5.931
14700.000			-29.650			-5.930
14800.000			-29.647			-5.929
14900.000			-29.646			-5.929
15001.000			-29.642			-5.928
15100.000			-29.639			-5.928
15201.000			-29.636			-5.927
15302.000			-29.634			-5.927
15400.000			-29.632			-5.926
15500.000			-29.629			-5.926
15601.000			-29.627			-5.925
15700.000			-29.625			-5.925
15800.000			-29.620			-5.924
15901.000			-29.618			-5.924
16001.000			-29.616			-5.923
16101.000			-29.615			-5.923
16201.000			-29.612			-5.922
16300.000			-29.610			-5.922
16400.000			-29.607			-5.921
16501.000			-29.603			-5.921
16600.000			-29.601			-5.920
16700.000			-29.599			-5.920
16802.000			-29.596			-5.919
16901.000			-29.594			-5.919
17000.000			-29.593			-5.919
17101.000			-29.590			-5.918
17200.000			-29.584			-5.917
17300.000			-29.583			-5.917
17401.000			-29.581			-5.916
17500.000			-29.580			-5.916
17600.000			-29.578			-5.916
17702.000			-29.575			-5.915
17801.000			-29.573			-5.915
17900.000			-29.571			-5.914
18000.000			-29.567			-5.913
18100.000			-29.565			-5.913
18201.000			-29.564			-5.913
18300.000			-29.562			-5.912
18400.000			-29.560			-5.912
18502.000			-29.557			-5.911
18601.000			-29.555			-5.911
18700.000			-29.551			-5.910
18801.000			-29.549			-5.910
18900.000			-29.548			-5.910
19000.000			-29.547			-5.909
19101.000			-29.544			-5.909
19200.000			-29.542			-5.908
19300.000			-29.540			-5.908
19402.000			-29.537			-5.907
19501.000			-29.536			-5.907
19600.000			-29.533			-5.907
19701.000			-29.531			-5.906
19800.000			-29.529			-5.906
19900.000			-29.527			-5.905
20001.000			-29.526			-5.905
20100.000			-29.524			-5.905
20201.000			-29.520			-5.904
20302.000			-29.519			-5.904
20400.000			-29.516			-5.903
20500.000			-29.514			-5.903
20601.000			-29.513			-5.903
20700.000			-29.512			-5.902
20800.000			-29.509			-5.902
20901.000			-29.506			-5.901
21001.000			-29.505			-5.901
21102.000			-29.503			-5.901
21200.000			-29.501			-5.900
21300.000			-29.499			-5.900
21401.000			-29.497			-5.899
21500.000			-29.496			-5.899
21600.000			-29.496			-5.899
21701.000			-29.491			-5.898
21801.000			-29.489			-5.898
21901.000			-29.488			-5.898
22001.000			-29.486			-5.897
22100.000			-29.484			-5.897
22200.000			-29.483			-5.897
22301.000			-29.482			-5.896
22400.000			-29.479			-5.896
22500.000			-29.477			-5.895
22602.000			-29.476			-5.895
22701.000			-29.474			-5.895
22800.000			-29.471			-5.894
22901.000			-29.470			-5.894
23000.000			-29.469			-5.894
23100.000			-29.467			-5.893
23201.000			-29.464			-5.893
23300.000			-29.463			-5.893
23401.000			-29.462			-5.892
23502.000			-29.459			-5.892
23600.000			-29.456			-5.891
23700.000			-29.456			-5.891
23801.000			-29.454			-5.891
23900.000			-29.453			-5.891
24000.000			-29.451			-5.890
24101.000			-29.449			-5.890
24201.000			-29.448			-5.890
24302.000			-29.446			-5.889
24401.000			-29.444			-5.889
24500.000			-29.442			-5.888
24601.000			-29.440			-5.888
24700.000			-29.438			-5.888
24800.000			-29.438			-5.888
24901.000			-29.436			-5.887
25001.000			-29.435			-5.887
25101.000			-29.433			-5.887
25202.000			-29.432			-5.886
25300.000			-29.429			-5.886
25400.000			-29.428			-5.886
25501.000			-29.426			-5.885
25600.000			-29.424			-5.885
25700.000			-29.422			-5.884
25801.000			-29.421			-5.884
25901.000			-29.419			-5.884
26001.000			-29.418			-5.884
26101.000			-29.415			-5.883
26200.000			-29.414			-5.883
26300.000			-29.413			-5.883
26401.000			-29.412			-5.882
26500.000			-29.411			-5.882
26600.000			-29.410			-5.882
26702.000			-29.408			-5.882
26801.000			-29.405			-5.881
26900.000			-29.404			-5.881
27001.000			-29.403			-5.881
27100.000			-29.402			-5.880
27200.000			-29.399			-5.880
27301.000			-29.398			-5.880
27400.000			-29.397			-5.879
27502.000			-29.394			-5.879
27601.000			-29.394			-5.879
27700.000			-29.393			-5.879
27801.000			-29.391			-5.878
27900.000			-29.389			-5.878
28000.000			-29.389			-5.878
28101.000			-29.388			-5.878
28200.000			-29.386			-5.877
28301.000			-29.384			-5.877
28402.000			-29.382			-5.876
28501.000			-29.382			-5.876
28600.000			-29.381			-5.876
28701.000			-29.379			-5.876
28800.000			-29.377			-5.875
28900.000			-29.376			-5.875
29001.000			-29.375			-5.875
29100.000			-29.373			-5.875
29201.000			-29.371			-5.874
29302.000			-29.369			-5.874
29400.000			-29.368			-5.874
29500.000			-29.368			-5.874
29601.000			-29.366			-5.873
29700.000			-29.365			-5.873
29800.000			-29.363			-5.873
29901.000			-29.361			-5.872
30001.000			-29.359			-5.872
30101.000			-29.358			-5.872
30201.000			-29.358			-5.872
30300.000			-29.357			-5.871
30400.000			-29.354			-5.871
30501.000			-29.352			-5.870
30600.000			-29.351			-5.870
30700.000			-29.350			-5.870
30802.000			-29.349			-5.870
30901.000			-29.348			-5.870
31001.000			-29.347			-5.869
31100.000			-29.345			-5.869
31200.000			-29.344			-5.869
31301.000			-29.342			-5.868
31400.000			-29.341			-5.868
31500.000			-29.340			-5.868
31602.000			-29.338			-5.868
31701.000			-29.337			-5.867
31801.000			-29.336			-5.867
31901.000			-29.334			-5.867
32000.000			-29.333			-5.867
32100.000			-29.332			-5.866
32201.000			-29.330			-5.866
32300.000			-29.330			-5.866
32401.000			-29.328			-5.866
32502.000			-29.328			-5.866
32601.000			-29.327			-5.865
32700.000			-29.324			-5.865
32801.000			-29.323			-5.865
32900.000			-29.323			-5.865
33000.000			-29.322			-5.864
33101.000			-29.321			-5.864
33201.000			-29.320			-5.864
33301.000			-29.318			-5.864
33401.000			-29.316			-5.863
33500.000			-29.314			-5.863
33600.000			-29.314			-5.863
33701.000			-29.313			-5.863
33800.000			-29.312			-5.862
33900.000			-29.311			-5.862
34002.000			-29.310			-5.862
34101.000			-29.308			-5.862
34201.000			-29.307			-5.861
34300.000			-29.306			-5.861
34400.000			-29.304			-5.861
34501.000			-29.304			-5.861
34600.000			-29.303			-5.861
34700.000			-29.301			-5.860
34802.000			-29.300			-5.860
34901.000			-29.299			-5.860
35001.000			-29.297			-5.859
35101.000			-29.296			-5.859
35200.000			-29.295			-5.859
35300.000			-29.294			-5.859
35401.000			-29.293			-5.859
35500.000			-29.293			-5.859
35600.000			-29.290			-5.858
35702.000			-29.290			-5.858
35801.000			-29.288			-5.858
35900.000			-29.288			-5.858
36001.000			-29.287			-5.857
36100.000			-29.285			-5.857
36200.000			-29.284			-5.857
36301.000			-29.282			-5.856
36400.000			-29.281			-5.856
36501.000			-29.280			-5.856
36602.000			-29.280			-5.856
36701.000			-29.278			-5.856
36800.000			-29.277			-5.855
36901.000			-29.276			-5.855
37000.000			-29.275			-5.855
37100.000			-29.273			-5.855
37200.000			-29.272			-5.854
37300.000			-29.271			-5.854
37402.000			-29.270			-5.854
37501.000			-29.270			-5.854
37600.000			-29.270			-5.854
37701.000			-29.268			-5.854
37800.000			-29.265			-5.853
37900.000			-29.264			-5.853
38001.000			-29.264			-5.853
38100.000			-29.264			-5.853
38201.000			-29.262			-5.852
38302.000			-29.261			-5.852
38400.000			-29.260			-5.852
38500.000			-29.257			-5.851
38601.000			-29.256			-5.851
38700.000			-29.256			-5.851
38800.000			-29.255			-5.851
38901.000			-29.254			-5.851
39001.000			-29.253			-5.851
39101.000			-29.253			-5.851
39201.000			-29.251			-5.850
39300.000			-29.249			-5.850
39400.000			-29.248			-5.850
39501.000			-29.247			-5.849
39600.000			-29.246			-5.849
39700.000			-29.247			-5.849
39802.000			-29.246			-5.849
39901.000			-29.246			-5.849
40000.000			-29.243			-5.849
40101.000			-29.241			-5.848
40200.000			-29.242			-5.848
40300.000			-29.240			-5.848
40400.000			-29.239			-5.848
40500.000			-29.238			-5.848
40602.000			-29.237			-5.847
40701.000			-29.236			-5.847
40800.000			-29.234			-5.847
40901.000			-29.233			-5.847
41000.000			-29.233			-5.847
41100.000			-29.231			-5.846
41201.000			-29.231			-5.846
41300.000			-29.230			-5.846
41401.000			-29.230			-5.846
41502.000			-29.227			-5.845
41600.000			-29.226			-5.845
41700.000			-29.226			-5.845
41801.000			-29.226			-5.845
41900.000			-29.225			-5.845
42000.000			-29.223			-5.845
42101.000			-29.222			-5.844
42201.000			-29.221			-5.844
42301.000			-29.220			-5.844
42401.000			-29.218			-5.844
42500.000			-29.218			-5.844
42600.000			-29.218			-5.844
42701.000			-29.217			-5.843
42800.000			-29.214			-5.843
42900.000			-29.213			-5.843
43002.000			-29.213			-5.843
43101.000			-29.213			-5.843
43200.000			-29.212			-5.842
43301.000			-29.211			-5.842
43400.000			-29.211			-5.842
43500.000			-29.210			-5.842
43600.000			-29.208			-5.842
43700.000			-29.206			-5.841
43802.000			-29.205			-5.841
43901.000			-29.204			-5.841
44000.000			-29.204			-5.841
44101.000			-29.204			-5.841
44200.000			-29.203			-5.841
44300.000			-29.202			-5.840
44401.000			-29.200			-5.840
44500.000			-29.198			-5.840
44601.000			-29.198			-5.840
44702.000			-29.198			-5.840
44800.000			-29.196			-5.839
44900.000			-29.195			-5.839
45001.000			-29.195			-5.839
45100.000			-29.193			-5.839
45200.000			-29.192			-5.838
45301.000			-29.191			-5.838
45401.000			-29.191			-5.838
45501.000			-29.191			-5.838
45601.000			-29.190			-5.838
45700.000			-29.189			-5.838
45800.000			-29.188			-5.838
45901.000			-29.186			-5.837
46000.000			-29.185			-5.837
46100.000			-29.184			-5.837
46202.000			-29.182			-5.836
46301.000			-29.182			-5.836
46400.000			-29.182			-5.836
46501.000			-29.182			-5.836
46600.000			-29.180			-5.836
46700.000			-29.179			-5.836
46800.000			-29.178			-5.836
46900.000			-29.178			-5.836
47001.000			-29.177			-5.835
47101.000			-29.176			-5.835
47201.000			-29.176			-5.835
47301.000			-29.173			-5.835
47400.000			-29.172			-5.834
47500.000			-29.173			-5.835
47601.000			-29.172			-5.834
47700.000			-29.171			-5.834
47800.000			-29.170			-5.834
47902.000			-29.170			-5.834
48001.000			-29.168			-5.834
48101.000			-29.167			-5.833
48201.000			-29.166			-5.833
48300.000			-29.165			-5.833
48400.000			-29.165			-5.833
48501.000			-29.163			-5.833
48600.000			-29.161			-5.832
48700.000			-29.162			-5.832
48802.000			-29.161			-5.832
48901.000			-29.161			-5.832
49000.000			-29.159			-5.832
49101.000			-29.157			-5.831
49200.000			-29.157			-5.831
49300.000			-29.157			-5.831
49401.000			-29.157			-5.831
49500.000			-29.155			-5.831
49601.000			-29.154			-5.831
49702.000			-29.153			-5.831
49800.000			-29.153			-5.831
49900.000			-29.152			-5.830
50000.000			-29.152			-5.830
50100.000			-29.151			-5.830
50201.000			-29.150			-5.830
50300.000			-29.149			-5.830
50401.000			-29.148			-5.830
50502.000			-29.147			-5.829
50600.000			-29.147			-5.829
50700.000			-29.146			-5.829
50801.000			-29.145			-5.829
50900.000			-29.143			-5.829
51000.000			-29.143			-5.829
51101.000			-29.143			-5.829
51201.000			-29.141			-5.828
51301.000			-29.139			-5.828
51401.000			-29.139			-5.828
51500.000			-29.140			-5.828
51600.000			-29.139			-5.828
51701.000			-29.137			-5.827
51800.000			-29.137			-5.827
51900.000			-29.136			-5.827
52002.000			-29.135			-5.827
52101.000			-29.134			-5.827
52200.000			-29.133			-5.827
52301.000			-29.132			-5.826
52400.000			-29.132			-5.826
52500.000			-29.131			-5.826
52601.000			-29.130			-5.826
52700.000			-29.129			-5.826
52801.000			-29.129			-5.826
52902.000			-29.128			-5.826
53000.000			-29.128			-5.826
53100.000			-29.128			-5.826
53200.000			-29.126			-5.825
53300.000			-29.125			-5.825
53401.000			-29.123			-5.825
53500.000			-29.123			-5.825
53601.000			-29.122			-5.824
53702.000			-29.121			-5.824
53800.000			-29.121			-5.824
53900.000			-29.120			-5.824
54001.000			-29.119			-5.824
54100.000			-29.119			-5.824
54200.000			-29.118			-5.824
54301.000			-29.117			-5.823
54401.000			-29.117			-5.823
54501.000			-29.116			-5.823
54601.000			-29.115			-5.823
54700.000			-29.113			-5.823
54800.000			-29.113			-5.823
54901.000			-29.113			-5.823
55000.000			-29.111			-5.822
55100.000			-29.111			-5.822
55202.000			-29.110			-5.822
55301.000			-29.110			-5.822
55400.000			-29.109			-5.822
55501.000			-29.108			-5.822
55600.000			-29.107			-5.821
55700.000			-29.107			-5.821
55801.000			-29.105			-5.821
55900.000			-29.105			-5.821
56001.000			-29.105			-5.821
56102.000			-29.104			-5.821
56200.000			-29.103			-5.821
56300.000			-29.103			-5.821
56400.000			-29.101			-5.820
56500.000			-29.101			-5.820
56601.000			-29.100			-5.820
56700.000			-29.099			-5.820
56801.000			-29.099			-5.820
56902.000			-29.098			-5.820
57000.000			-29.097			-5.819
57100.000			-29.095			-5.819
57201.000			-29.095			-5.819
57300.000			-29.094			-5.819
57400.000			-29.094			-5.819
57501.000			-29.094			-5.819
57601.000			-29.094			-5.819
57701.000			-29.091			-5.818
57801.000			-29.091			-5.818
57900.000			-29.090			-5.818
58000.000			-29.090			-5.818
58101.000			-29.089			-5.818
58200.000			-29.089			-5.818
58300.000			-29.088			-5.818
58401.000			-29.088			-5.818
58501.000			-29.087			-5.817
58601.000			-29.086			-5.817
58701.000			-29.085			-5.817
58800.000			-29.085			-5.817
58900.000			-29.085			-5.817
59001.000			-29.084			-5.817
59100.000			-29.081			-5.816
59200.000			-29.081			-5.816
59302.000			-29.080			-5.816
59401.000			-29.080			-5.816
59500.000			-29.079			-5.816
59600.000			-29.079			-5.816
59700.000			-29.078			-5.816
59801.000			-29.079			-5.816
59900.000			-29.077			-5.815
60000.000			-29.077			-5.815
60102.000			-29.075			-5.815
60201.000			-29.075			-5.815
60300.000			-29.074			-5.815
60401.000			-29.073			-5.815
60500.000			-29.074			-5.815
60600.000			-29.071			-5.814
60701.000			-29.072			-5.814
60800.000			-29.071			-5.814
60901.000			-29.071			-5.814
61002.000			-29.070			-5.814
61101.000			-29.069			-5.814
61200.000			-29.068			-5.814
61301.000			-29.067			-5.813
61400.000			-29.066			-5.813
61500.000			-29.066			-5.813
61601.000			-29.065			-5.813
61701.000			-29.065			-5.813
61801.000			-29.064			-5.813
61902.000			-29.063			-5.813
62000.000			-29.063			-5.813
62100.000			-29.062			-5.812
62201.000			-29.061			-5.812
62300.000			-29.061			-5.812
62400.000			-29.060			-5.812
62502.000			-29.059			-5.812
62601.000			-29.059			-5.812
62702.000			-29.058			-5.812
62800.000			-29.057			-5.811
62900.000			-29.056			-5.811
63001.000			-29.056			-5.811
63100.000			-29.055			-5.811
63200.000			-29.054			-5.811
63301.000			-29.054			-5.811
63401.000			-29.055			-5.811
63501.000			-29.053			-5.811
63601.000			-29.052			-5.810
63700.000			-29.051			-5.810
63800.000			-29.051			-5.810
63901.000			-29.051			-5.810
64000.000			-29.050			-5.810
64100.000			-29.049			-5.810
64202.000			-29.048			-5.810
64301.000			-29.047			-5.809
64400.000			-29.047			-5.809
64501.000			-29.047			-5.809
64600.000			-29.046			-5.809
64700.000			-29.045			-5.809
64801.000			-29.045			-5.809
64900.000			-29.045			-5.809
65001.000			-29.043			-5.809
65102.000			-29.043			-5.809
65200.000			-29.043			-5.809
65300.000			-29.042			-5.808
65401.000			-29.041			-5.808
65500.000			-29.040			-5.808
65600.000			-29.038			-5.808
65701.000			-29.039			-5.808
65801.000			-29.038			-5.808
65902.000			-29.038			-5.808
66000.000			-29.037			-5.807
66100.000			-29.036			-5.807
66201.000			-29.036			-5.807
66300.000			-29.035			-5.807
66400.000			-29.033			-5.807
66501.000			-29.033			-5.807
66601.000			-29.033			-5.807
66701.000			-29.032			-5.806
66801.000			-29.031			-5.806
66900.000			-29.031			-5.806
67000.000			-29.030			-5.806
67101.000			-29.030			-5.806
67200.000			-29.029			-5.806
67300.000			-29.028			-5.806
67402.000			-29.027			-5.805
67501.000			-29.027			-5.805
67600.000			-29.026			-5.805
67701.000			-29.025			-5.805
67800.000			-29.026			-5.805
67900.000			-29.025			-5.805
68001.000			-29.025			-5.805
68100.000			-29.024			-5.805
68200.000			-29.022			-5.804
68302.000			-29.022			-5.804
68401.000			-29.022			-5.804
68500.000			-29.022			-5.804
68601.000			-29.019			-5.804
68700.000			-29.019			-5.804
68800.000			-29.019			-5.804
68901.000			-29.018			-5.804
69000.000			-29.018			-5.804
69102.000			-29.017			-5.803
69201.000			-29.018			-5.804
69300.000			-29.017			-5.803
69401.000			-29.015			-5.803
69500.000			-29.014			-5.803
69600.000			-29.014			-5.803
69701.000			-29.014			-5.803
69800.000			-29.012			-5.802
69901.000			-29.012			-5.802
70002.000			-29.013			-5.803
70100.000			-29.011			-5.802
70200.000			-29.010			-5.802
70301.000			-29.011			-5.802
70400.000			-29.010			-5.802
70500.000			-29.009			-5.802
70601.000			-29.008			-5.802
70701.000			-29.008			-5.802
70801.000			-29.007			-5.801
70901.000			-29.007			-5.801
71000.000			-29.006			-5.801
71100.000			-29.005			-5.801
71201.000			-29.003			-5.801
71300.000			-29.003			-5.801
71400.000			-29.004			-5.801
71502.000			-29.004			-5.801
71601.000			-29.003			-5.801
71700.000			-29.003			-5.801
71801.000			-29.002			-5.800
71900.000			-29.001			-5.800
72000.000			-29.001			-5.800
72101.000			-29.000			-5.800
72200.000			-28.999			-5.800
72302.000			-28.999			-5.800
72401.000			-28.998			-5.800
72501.000			-28.999			-5.800
72601.000			-28.997			-5.799
72700.000			-28.996			-5.799
72800.000			-28.996			-5.799
72901.000			-28.995			-5.799
73000.000			-28.994			-5.799
73100.000			-28.993			-5.799
73202.000			-28.994			-5.799
73301.000			-28.994			-5.799
73400.000			-28.993			-5.799
73501.000			-28.992			-5.798
73600.000			-28.992			-5.798
73700.000			-28.991			-5.798
73801.000			-28.990			-5.798
73900.000			-28.989			-5.798
74000.000			-28.988			-5.798
74102.000			-28.988			-5.798
74201.000			-28.987			-5.797
74300.000			-28.987			-5.797
74401.000			-28.987			-5.797
74500.000			-28.986			-5.797
74600.000			-28.985			-5.797
74701.000			-28.984			-5.797
74800.000			-28.983			-5.797
74901.000			-28.983			-5.797
75002.000			-28.983			-5.797
75101.000			-28.983			-5.797
75200.000			-28.982			-5.796
75301.000			-28.982			-5.796
75400.000			-28.981			-5.796
75500.000			-28.980			-5.796
75600.000			-28.980			-5.796
75700.000			-28.981			-5.796
75802.000			-28.979			-5.796
75901.000			-28.978			-5.796
76001.000			-28.977			-5.795
76101.000			-28.978			-5.796
76200.000			-28.978			-5.796
76300.000			-28.977			-5.795
76401.000			-28.975			-5.795
76500.000			-28.975			-5.795
76600.000			-28.975			-5.795
76702.000			-28.973			-5.795
76801.000			-28.973			-5.795
76900.000			-28.972			-5.794
77001.000			-28.972			-5.794
77100.000			-28.972			-5.794
77200.000			-28.972			-5.794
77301.000			-28.971			-5.794
77400.000			-28.970			-5.794
77500.000			-28.970			-5.794
77602.000			-28.970			-5.794
77701.000			-28.969			-5.794
77800.000			-28.969			-5.794
77901.000			-28.969			-5.794
78000.000			-28.968			-5.794
78100.000			-28.967			-5.793
78201.000			-28.966			-5.793
78300.000			-28.966			-5.793
78400.000			-28.965			-5.793
78502.000			-28.964			-5.793
78601.000			-28.964			-5.793
78700.000			-28.964			-5.793
78800.000			-28.964			-5.793
78900.000			-28.962			-5.792
79001.000			-28.962			-5.792
79100.000			-28.961			-5.792
79200.000			-28.960			-5.792
79302.000			-28.960			-5.792
79401.000			-28.960			-5.792
79501.000			-28.959			-5.792
79601.000			-28.958			-5.792
79700.000			-28.957			-5.791
79800.000			-28.957			-5.791
79901.000			-28.957			-5.791
80000.000			-28.957			-5.791
80100.000			-28.956			-5.791
80201.000			-28.955			-5.791
80301.000			-28.955			-5.791
80401.000			-28.954			-5.791
80501.000			-28.954			-5.791
80600.000			-28.953			-5.791
80700.000			-28.953			-5.791
80801.000			-28.953			-5.791
80900.000			-28.953			-5.791
81000.000			-28.951			-5.790
81102.000			-28.951			-5.790
81201.000			-28.951			-5.790
81300.000			-28.950			-5.790
81401.000			-28.949			-5.790
81500.000			-28.949			-5.790
81600.000			-28.948			-5.790
81701.000			-28.947			-5.789
81800.000			-28.947			-5.789
81900.000			-28.947			-5.789
82002.000			-28.947			-5.789
82101.000			-28.946			-5.789
82201.000			-28.945			-5.789
82300.000			-28.945			-5.789
82400.000			-28.945			-5.789
82501.000			-28.943			-5.789
82600.000			-28.943			-5.789
82700.000			-28.944			-5.789
82802.000			-28.943			-5.789
82901.000			-28.942			-5.788
83001.000			-28.942			-5.788
83101.000			-28.941			-5.788
83200.000			-28.940			-5.788
83300.000			-28.939			-5.788
83401.000			-28.939			-5.788
83500.000			-28.939			-5.788
83600.000			-28.939			-5.788
83702.000			-28.939			-5.788
83801.000			-28.939			-5.788
83900.000			-28.937			-5.787
84001.000			-28.937			-5.787
84100.000			-28.936			-5.787
84200.000			-28.935			-5.787
84301.000			-28.934			-5.787
84400.000			-28.935			-5.787
84501.000			-28.934			-5.787
84602.000			-28.934			-5.787
84701.000			-28.935			-5.787
84800.000			-28.931			-5.786
84901.000			-28.931			-5.786
85000.000			-28.931			-5.786
85100.000			-28.932			-5.786
85200.000			-28.931			-5.786
85300.000			-28.931			-5.786
85402.000			-28.930			-5.786
85501.000			-28.928			-5.786
85600.000			-28.928			-5.786
85701.000			-28.928			-5.786
85800.000			-28.927			-5.785
85900.000			-28.927			-5.785
86001.000			-28.927			-5.785
86100.000			-28.927			-5.785
86201.000			-28.926			-5.785
86302.000			-28.925			-5.785
86401.000			-28.925			-5.785
86500.000			-28.924			-5.785
86601.000			-28.924			-5.785
86700.000			-28.924			-5.785
86800.000			-28.924			-5.785
86901.000			-28.923			-5.785
87000.000			-28.922			-5.784
87101.000			-28.921			-5.784
87202.000			-28.921			-5.784
87300.000			-28.921			-5.784
87400.000			-28.921			-5.784
87501.000			-28.920			-5.784
87600.000			-28.918			-5.784
87700.000			-28.918			-5.784
87801.000			-28.918			-5.784
87901.000			-28.918			-5.784
88001.000			-28.917			-5.783
88102.000			-28.916			-5.783
88200.000			-28.916			-5.783
88300.000			-28.917			-5.783
88400.000			-28.915			-5.783
88500.000			-28.914			-5.783
88601.000			-28.914			-5.783
88700.000			-28.914			-5.783
88801.000			-28.913			-5.783
88902.000			-28.913			-5.783
89001.000			-28.912			-5.782
89100.000			-28.912			-5.782
89201.000			-28.911			-5.782
89300.000			-28.911			-5.782
89400.000			-28.911			-5.782
89501.000			-28.910			-5.782
89600.000			-28.910			-5.782
89701.000			-28.910			-5.782
89802.000			-28.910			-5.782
89900.000			-28.908			-5.782
90000.000			-28.907			-5.781
90101.000			-28.907			-5.781
90200.000			-28.905			-5.781
90300.000			-28.906			-5.781
90401.000			-28.906			-5.781
90501.000			-28.905			-5.781
90601.000			-28.905			-5.781
90702.000			-28.903			-5.781
90800.000			-28.903			-5.781
90900.000			-28.903			-5.781
91001.000			-28.904			-5.781
91100.000			-28.903			-5.781
91200.000			-28.903			-5.781
91301.000			-28.902			-5.780
91401.000			-28.901			-5.780
91502.000			-28.900			-5.780
91600.000			-28.900			-5.780
91700.000			-28.899			-5.780
91801.000			-28.899			-5.780
91900.000			-28.899			-5.780
92000.000			-28.898			-5.780
92101.000			-28.898			-5.780
92201.000			-28.897			-5.779
92301.000			-28.896			-5.779
92402.000			-28.896			-5.779
92500.000			-28.896			-5.779
92600.000			-28.895			-5.779
92701.000			-28.894			-5.779
92800.000			-28.895			-5.779
92900.000			-28.894			-5.779
93001.000			-28.893			-5.779
93101.000			-28.894			-5.779
93201.000			-28.893			-5.779
93301.000			-28.892			-5.778
93400.000			-28.892			-5.778
93500.000			-28.891			-5.778
93601.000			-28.891			-5.778
93700.000			-28.891			-5.778
93800.000			-28.889			-5.778
93901.000			-28.889			-5.778
94001.000			-28.889			-5.778
94101.000			-28.888			-5.778
94201.000			-28.889			-5.778
94300.000			-28.887			-5.777
94400.000			-28.887			-5.777
94501.000			-28.886			-5.777
94600.000			-28.886			-5.777
94700.000			-28.886			-5.777
94800.000			-28.886			-5.777
94901.000			-28.885			-5.777
95002.000			-28.885			-5.777
95100.000			-28.885			-5.777
95200.000			-28.883			-5.777
95301.000			-28.883			-5.777
95400.000			-28.883			-5.777
95500.000			-28.883			-5.777
95601.000			-28.882			-5.776
95700.000			-28.881			-5.776
95801.000			-28.880			-5.776
95902.000			-28.880			-5.776
96000.000			-28.879			-5.776
96100.000			-28.878			-5.776
96201.000			-28.878			-5.776
96300.000			-28.879			-5.776
96400.000			-28.879			-5.776
96501.000			-28.877			-5.775
96600.000			-28.877			-5.775
96701.000			-28.877			-5.775
96802.000			-28.877			-5.775
96900.000			-28.876			-5.775
97000.000			-28.877			-5.775
97101.000			-28.876			-5.775
97200.000			-28.874			-5.775
97300.000			-28.875			-5.775
97401.000			-28.873			-5.775
97500.000			-28.872			-5.774
97601.000			-28.873			-5.775
97702.000			-28.873			-5.775
97800.000			-28.872			-5.774
97900.000			-28.871			-5.774
98000.000			-28.870			-5.774
98100.000			-28.870			-5.774
98201.000			-28.870			-5.774
98300.000			-28.869			-5.774
98400.000			-28.870			-5.774
98502.000			-28.869			-5.774
98601.000			-28.868			-5.774
98700.000			-28.868			-5.774
98801.000			-28.868			-5.774
98900.000			-28.867			-5.773
99000.000			-28.866			-5.773
99101.000			-28.866			-5.773
99200.000			-28.865			-5.773
99300.000			-28.865			-5.773
99402.000			-28.864			-5.773
99501.000			-28.864			-5.773
99600.000			-28.864			-5.773
99701.000			-28.865			-5.773
99800.000			-28.864			-5.773
99900.000			-28.862			-5.772
100001.000			-28.861			-5.772
100100.000			-28.861			-5.772
100201.000			-28.861			-5.772
100302.000			-28.861			-5.772
100401.000			-28.860			-5.772
100500.000			-28.860			-5.772
100601.000			-28.861			-5.772
100700.000			-28.860			-5.772
100800.000			-28.859			-5.772
100901.000			-28.858			-5.772
101000.000			-28.857			-5.771
101102.000			-28.858			-5.772
101201.000			-28.858			-5.772
101301.000			-28.857			-5.771
101401.000			-28.857			-5.771
101500.000			-28.856			-5.771
101600.000			-28.855			-5.771
101701.000			-28.855			-5.771
101800.000			-28.854			-5.771
101900.000			-28.854			-5.771
102002.000			-28.853			-5.771
102101.000			-28.852			-5.770
102200.000			-28.853			-5.771
102301.000			-28.852			-5.770
102400.000			-28.852			-5.770
102500.000			-28.852			-5.770
102601.000			-28.851			-5.770
102700.000			-28.851			-5.770
102801.000			-28.850			-5.770
102902.000			-28.849			-5.770
103001.000			-28.849			-5.770
103100.000			-28.849			-5.770
103201.000			-28.849			-5.770
103300.000			-28.848			-5.770
103400.000			-28.848			-5.770
103501.000			-28.848			-5.770
103600.000			-28.848			-5.770
103701.000			-28.847			-5.769
103802.000			-28.846			-5.769
103900.000			-28.845			-5.769
104000.000			-28.845			-5.769
104101.000			-28.845			-5.769
104200.000			-28.845			-5.769
104300.000			-28.844			-5.769
104400.000			-28.844			-5.769
104500.000			-28.844			-5.769
104602.000			-28.842			-5.768
104701.000			-28.842			-5.768
104800.000			-28.841			-5.768
104901.000			-28.842			-5.768
105000.000			-28.841			-5.768
105100.000			-28.840			-5.768
105201.000			-28.840			-5.768
105300.000			-28.840			-5.768
105400.000			-28.840			-5.768
105502.000			-28.840			-5.768
105601.000			-28.839			-5.768
105700.000			-28.839			-5.768
105801.000			-28.839			-5.768
105900.000			-28.838			-5.768
106000.000			-28.838			-5.768
106101.000			-28.836			-5.767
106200.000			-28.836			-5.767
106301.000			-28.836			-5.767
106402.000			-28.836			-5.767
106501.000			-28.836			-5.767
106600.000			-28.835			-5.767
106701.000			-28.834			-5.767
106800.000			-28.835			-5.767
106900.000			-28.834			-5.767
107001.000			-28.834			-5.767
107100.000			-28.833			-5.767
107201.000			-28.833			-5.767
107302.000			-28.833			-5.767
107400.000			-28.832			-5.766
107500.000			-28.831			-5.766
107600.000			-28.831			-5.766
107700.000			-28.830			-5.766
107801.000			-28.830			-5.766
107900.000			-28.830			-5.766
108000.000			-28.830			-5.766
108102.000			-28.829			-5.766
108201.000			-28.828			-5.766
108300.000			-28.828			-5.766
108401.000			-28.827			-5.765
108500.000			-28.827			-5.765
108600.000			-28.827			-5.765
108701.000			-28.826			-5.765
108800.000			-28.826			-5.765
108900.000			-28.825			-5.765
109002.000			-28.825			-5.765
109101.000			-28.824			-5.765
109200.000			-28.823			-5.765
109301.000			-28.824			-5.765
109400.000			-28.825			-5.765
109500.000			-28.823			-5.765
109601.000			-28.822			-5.764
109700.000			-28.823			-5.765
109801.000			-28.822			-5.764
109902.000			-28.822			-5.764
110001.000			-28.822			-5.764
110100.000			-28.822			-5.764
110201.000			-28.821			-5.764
110300.000			-28.821			-5.764
110400.000			-28.820			-5.764
110501.000			-28.820			-5.764
110600.000			-28.820			-5.764
110702.000			-28.820			-5.764
110801.000			-28.819			-5.764
110900.000			-28.818			-5.764
111001.000			-28.818			-5.764
111100.000			-28.818			-5.764
111200.000			-28.817			-5.763
111301.000			-28.816			-5.763
111400.000			-28.816			-5.763
111501.000			-28.816			-5.763
111602.000			-28.817			-5.763
111701.000			-28.816			-5.763
111800.000			-28.816			-5.763
111901.000			-28.814			-5.763
112000.000			-28.813			-5.763
112100.000			-28.812			-5.762
112201.000			-28.813			-5.763
112300.000			-28.813			-5.763
112401.000			-28.812			-5.762
112502.000			-28.811			-5.762
112600.000			-28.813			-5.763
112700.000			-28.811			-5.762
112801.000			-28.811			-5.762
112900.000			-28.811			-5.762
113000.000			-28.810			-5.762
113101.000			-28.811			-5.762
113201.000			-28.810			-5.762
113301.000			-28.809			-5.762
113402.000			-28.809			-5.762
113500.000			-28.808			-5.762
113600.000			-28.807			-5.761
113701.000			-28.807			-5.761
113800.000			-28.806			-5.761
113900.000			-28.806			-5.761
114000.000			-28.806			-5.761
114101.000			-28.805			-5.761
114202.000			-28.805			-5.761
114301.000			-28.805			-5.761
114400.000			-28.804			-5.761
114501.000			-28.805			-5.761
114600.000			-28.804			-5.761
114700.000			-28.803			-5.761
114801.000			-28.803			-5.761
114900.000			-28.803			-5.761
115001.000			-28.802			-5.760
115102.000			-28.801			-5.760
115200.000			-28.801			-5.760
115300.000			-28.800			-5.760
115401.000			-28.800			-5.760
115500.000			-28.800			-5.760
115600.000			-28.801			-5.760
115701.000			-28.800			-5.760
115801.000			-28.799			-5.760
115901.000			-28.799			-5.760
116002.000			-28.798			-5.760
116100.000			-28.798			-5.760
116200.000			-28.798			-5.760
116301.000			-28.798			-5.760
116400.000			-28.798			-5.760
116500.000			-28.797			-5.759
116601.000			-28.796			-5.759
116701.000			-28.795			-5.759
116801.000			-28.796			-5.759
116902.000			-28.796			-5.759
117000.000			-28.795			-5.759
117100.000			-28.795			-5.759
117200.000			-28.794			-5.759
117300.000			-28.793			-5.759
117401.000			-28.793			-5.759
117500.000			-28.793			-5.759
117600.000			-28.793			-5.759
117702.000			-28.793			-5.759
117801.000			-28.792			-5.758
117900.000			-28.792			-5.758
118001.000			-28.791			-5.758
118100.000			-28.791			-5.758
118200.000			-28.790			-5.758
118301.000			-28.789			-5.758
118400.000			-28.789			-5.758
118500.000			-28.790			-5.758
118602.000			-28.790			-5.758
118701.000			-28.789			-5.758
118800.000			-28.788			-5.758
118901.000			-28.788			-5.758
119000.000			-28.788			-5.758
119100.000			-28.787			-5.757
119201.000			-28.787			-5.757
119300.000			-28.786			-5.757
119400.000			-28.787			-5.757
119502.000			-28.787			-5.757
119601.000			-28.786			-5.757
119700.000			-28.785			-5.757
119801.000			-28.786			-5.757
119900.000			-28.785			-5.757
120000.000			-28.784			-5.757
120101.000			-28.784			-5.757
120200.000			-28.783			-5.757
120300.000			-28.783			-5.757
120402.000			-28.783			-5.757
120501.000			-28.782			-5.756
120601.000			-28.782			-5.756
120700.000			-28.782			-5.756
120800.000			-28.781			-5.756
120901.000			-28.781			-5.756
121000.000			-28.781			-5.756
121100.000			-28.781			-5.756
121201.000			-28.780			-5.756
121301.000			-28.780			-5.756
121401.000			-28.779			-5.756
121501.000			-28.779			-5.756
121600.000			-28.779			-5.756
121700.000			-28.778			-5.756
121801.000			-28.778			-5.756
121900.000			-28.778			-5.756
122000.000			-28.778			-5.756
122101.000			-28.776			-5.755
122201.000			-28.777			-5.755
122301.000			-28.776			-5.755
122401.000			-28.776			-5.755
122500.000			-28.776			-5.755
122600.000			-28.776			-5.755
122701.000			-28.775			-5.755
122800.000			-28.774			-5.755
122900.000			-28.774			-5.755
123001.000			-28.773			-5.755
123101.000			-28.772			-5.754
123201.000			-28.772			-5.754
123301.000			-28.772			-5.754
123400.000			-28.773			-5.755
123500.000			-28.773			-5.755
123600.000			-28.772			-5.754
123700.000			-28.771			-5.754
123801.000			-28.770			-5.754
123901.000			-28.771			-5.754
124001.000			-28.771			-5.754
124102.000			-28.770			-5.754
124200.000			-28.769			-5.754
124300.000			-28.769			-5.754
124401.000			-28.769			-5.754
124500.000			-28.769			-5.754
124600.000			-28.769			-5.754
124701.000			-28.768			-5.754
124801.000			-28.767			-5.753
124901.000			-28.767			-5.753
125001.000			-28.767			-5.753
125100.000			-28.767			-5.753
125200.000			-28.767			-5.753
125301.000			-28.766			-5.753
125400.000			-28.765			-5.753
125500.000			-28.764			-5.753
125601.000			-28.764			-5.753
125701.000			-28.764			-5.753
125801.000			-28.765			-5.753
125901.000			-28.764			-5.753
126000.000			-28.764			-5.753
126100.000			-28.763			-5.753
126201.000			-28.763			-5.753
126300.000			-28.763			-5.753
126400.000			-28.763			-5.753
126501.000			-28.762			-5.752
126601.000			-28.762			-5.752
126702.000			-28.761			-5.752
126800.000			-28.759			-5.752
126900.000			-28.759			-5.752
127001.000			-28.759			-5.752
127100.000			-28.759			-5.752
127200.000			-28.759			-5.752
127301.000			-28.758			-5.752
127400.000			-28.758			-5.752
127501.000			-28.758			-5.752
127602.000			-28.757			-5.751
127700.000			-28.757			-5.751
127800.000			-28.757			-5.751
127901.000			-28.757			-5.751
128000.000			-28.757			-5.751
128100.000			-28.756			-5.751
128201.000			-28.755			-5.751
128300.000			-28.756			-5.751
128401.000			-28.756			-5.751
128502.000			-28.754			-5.751
128600.000			-28.754			-5.751
128700.000			-28.754			-5.751
128801.000			-28.753			-5.751
128900.000			-28.753			-5.751
129000.000			-28.753			-5.751
129101.000			-28.754			-5.751
129200.000			-28.753			-5.751
129301.000			-28.751			-5.750
129402.000			-28.752			-5.750
129500.000			-28.750			-5.750
129600.000			-28.751			-5.750
129701.000			-28.751			-5.750
129800.000			-28.750			-5.750
129900.000			-28.750			-5.750
130000.000			-28.749			-5.750
130100.000			-28.750			-5.750
130202.000			-28.750			-5.750
130301.000			-28.749			-5.750
130400.000			-28.748			-5.750
130501.000			-28.748			-5.750
130600.000			-28.748			-5.750
130700.000			-28.747			-5.749
130801.000			-28.747			-5.749
130900.000			-28.746			-5.749
131001.000			-28.747			-5.749
131102.000			-28.746			-5.749
131201.000			-28.745			-5.749
131300.000			-28.744			-5.749
131401.000			-28.744			-5.749
131500.000			-28.745			-5.749
131600.000			-28.744			-5.749
131701.000			-28.744			-5.749
131800.000			-28.744			-5.749
131900.000			-28.744			-5.749
132002.000			-28.744			-5.749
132101.000			-28.744			-5.749
132200.000			-28.743			-5.749
132301.000			-28.743			-5.749
132400.000			-28.744			-5.749
132500.000			-28.742			-5.748
132601.000			-28.742			-5.748
132700.000			-28.741			-5.748
132800.000			-28.740			-5.748
132902.000			-28.741			-5.748
133001.000			-28.740			-5.748
133102.000			-28.741			-5.748
133200.000			-28.740			-5.748
133300.000			-28.739			-5.748
133401.000			-28.739			-5.748
133500.000			-28.738			-5.748
133600.000			-28.738			-5.748
133701.000			-28.738			-5.748
133800.000			-28.737			-5.747
133901.000			-28.737			-5.747
134002.000			-28.737			-5.747
134100.000			-28.736			-5.747
134200.000			-28.737			-5.747
134301.000			-28.736			-5.747
134400.000			-28.735			-5.747
134500.000			-28.736			-5.747
134601.000			-28.735			-5.747
134700.000			-28.733			-5.747
134801.000			-28.734			-5.747
134902.000			-28.734			-5.747
135001.000			-28.734			-5.747
135100.000			-28.733			-5.747
135201.000			-28.733			-5.747
135300.000			-28.733			-5.747
135400.000			-28.732			-5.746
135501.000			-28.731			-5.746
135600.000			-28.731			-5.746
135700.000			-28.731			-5.746
135802.000			-28.731			-5.746
135901.000			-28.731			-5.746
136000.000			-28.730			-5.746
136101.000			-28.730			-5.746
136200.000			-28.729			-5.746
136300.000			-28.729			-5.746
136400.000			-28.729			-5.746
136500.000			-28.729			-5.746
136601.000			-28.729			-5.746
136701.000			-28.729			-5.746
136801.000			-28.729			-5.746
136901.000			-28.727			-5.745
137000.000			-28.727			-5.745
137100.000			-28.727			-5.745
137201.000			-28.727			-5.745
137300.000			-28.727			-5.745
137400.000			-28.725			-5.745
137501.000			-28.725			-5.745
137601.000			-28.726			-5.745
137701.000			-28.726			-5.745
137802.000			-28.725			-5.745
137900.000			-28.723			-5.745
138000.000			-28.724			-5.745
138101.000			-28.724			-5.745
138200.000			-28.723			-5.745
138300.000			-28.723			-5.745
138401.000			-28.722			-5.744
138500.000			-28.722			-5.744
138601.000			-28.723			-5.745
138702.000			-28.722			-5.744
138801.000			-28.722			-5.744
138900.000			-28.722			-5.744
139001.000			-28.721			-5.744
139100.000			-28.720			-5.744
139200.000			-28.720			-5.744
139301.000			-28.720			-5.744
139400.000			-28.719			-5.744
139500.000			-28.720			-5.744
139602.000			-28.720			-5.744
139701.000			-28.720			-5.744
139801.000			-28.719			-5.744
139900.000			-28.718			-5.744
140000.000			-28.718			-5.744
140101.000			-28.717			-5.743
140200.000			-28.717			-5.743
140300.000			-28.717			-5.743
140401.000			-28.717			-5.743
140501.000			-28.716			-5.743
140601.000			-28.716			-5.743
140702.000			-28.715			-5.743
140800.000			-28.715			-5.743
140900.000			-28.715			-5.743
141001.000			-28.714			-5.743
141100.000			-28.714			-5.743
141200.000			-28.714			-5.743
141301.000			-28.714			-5.743
141401.000			-28.713			-5.743
141501.000			-28.713			-5.743
141602.000			-28.713			-5.743
141700.000			-28.712			-5.742
141800.000			-28.711			-5.742
141901.000			-28.710			-5.742
142000.000			-28.711			-5.742
142100.000			-28.711			-5.742
142201.000			-28.711			-5.742
142300.000			-28.711			-5.742
142401.000			-28.710			-5.742
142502.000			-28.710			-5.742
142600.000			-28.710			-5.742
142700.000			-28.710			-5.742
142800.000			-28.709			-5.742
142900.000			-28.708			-5.742
143001.000			-28.707			-5.741
143100.000			-28.708			-5.742
143200.000			-28.707			-5.741
143302.000			-28.708			-5.742
143401.000			-28.708			-5.742
143501.000			-28.706			-5.741
143601.000			-28.706			-5.741
143700.000			-28.706			-5.741
143800.000			-28.706			-5.741
143901.000			-28.706			-5.741
144000.000			-28.706			-5.741
144100.000			-28.706			-5.741
144201.000			-28.704			-5.741
144301.000			-28.704			-5.741
144401.000			-28.704			-5.741
144501.000			-28.704			-5.741
144600.000			-28.704			-5.741
144700.000			-28.703			-5.741
144801.000			-28.704			-5.741
144900.000			-28.703			-5.741
145000.000			-28.703			-5.741
145101.000			-28.703			-5.741
145201.000			-28.702			-5.740
145301.000			-28.701			-5.740
145402.000			-28.701			-5.740
145500.000			-28.701			-5.740
145600.000			-28.701			-5.740
145701.000			-28.701			-5.740
145800.000			-28.700			-5.740
145900.000			-28.700			-5.740
146000.000			-28.699			-5.740
146100.000			-28.699			-5.740
146202.000			-28.699			-5.740
146301.000			-28.699			-5.740
146401.000			-28.698			-5.740
146501.000			-28.698			-5.740
146600.000			-28.698			-5.740
146700.000			-28.697			-5.739
146801.000			-28.697			-5.739
146900.000			-28.697			-5.739
147000.000			-28.696			-5.739
147101.000			-28.696			-5.739
147201.000			-28.697			-5.739
147301.000			-28.696			-5.739
147402.000			-28.696			-5.739
147500.000			-28.695			-5.739
147600.000			-28.695			-5.739
147701.000			-28.695			-5.739
147800.000			-28.695			-5.739
147900.000			-28.695			-5.739
148001.000			-28.694			-5.739
148100.000			-28.693			-5.739
148200.000			-28.693			-5.739
148302.000			-28.693			-5.739
148401.000			-28.693			-5.739
148500.000			-28.692			-5.738
148601.000			-28.691			-5.738
148700.000			-28.691			-5.738
148800.000			-28.692			-5.738
148901.000			-28.691			-5.738
149000.000			-28.691			-5.738
149100.000			-28.691			-5.738
149202.000			-28.690			-5.738
149301.000			-28.690			-5.738
149402.000			-28.690			-5.738
149500.000			-28.689			-5.738
149600.000			-28.688			-5.738
149701.000			-28.688			-5.738
149800.000			-28.688			-5.738
149900.000			-28.688			-5.738
150001.000			-28.688			-5.738
150100.000			-28.688			-5.738
150200.000			-28.687			-5.737
150302.000			-28.687			-5.737
150401.000			-28.687			-5.737
150500.000			-28.687			-5.737
150601.000			-28.686			-5.737
150700.000			-28.687			-5.737
150800.000			-28.685			-5.737
150901.000			-28.684			-5.737
151000.000			-28.685			-5.737
151100.000			-28.685			-5.737
151202.000			-28.684			-5.737
151301.000			-28.683			-5.737
151401.000			-28.684			-5.737
151501.000			-28.684			-5.737
151600.000			-28.684			-5.737
151700.000			-28.683			-5.737
151801.000			-28.682			-5.736
151900.000			-28.682			-5.736
152000.000			-28.682			-5.736
152101.000			-28.682			-5.736
152201.000			-28.681			-5.736
152302.000			-28.681			-5.736
152401.000			-28.681			-5.736
152500.000			-28.680			-5.736
152601.000			-28.679			-5.736
152700.000			-28.679			-5.736
152800.000			-28.680			-5.736
152901.000			-28.680			-5.736
153000.000			-28.680			-5.736
153100.000			-28.678			-5.736
153202.000			-28.678			-5.736
153301.000			-28.678			-5.736
153401.000			-28.678			-5.736
153501.000			-28.679			-5.736
153600.000			-28.678			-5.736
153700.000			-28.678			-5.736
153801.000			-28.677			-5.735
153900.000			-28.676			-5.735
154000.000			-28.676			-5.735
154101.000			-28.676			-5.735
154201.000			-28.677			-5.735
154301.000			-28.676			-5.735
154402.000			-28.675			-5.735
154500.000			-28.674			-5.735
154600.000			-28.674			-5.735
154701.000			-28.674			-5.735
154800.000			-28.673			-5.735
154900.000			-28.675			-5.735
155001.000			-28.675			-5.735
155100.000			-28.674			-5.735
155201.000			-28.673			-5.735
155302.000			-28.673			-5.735
155400.000			-28.673			-5.735
155500.000			-28.672			-5.734
155600.000			-28.671			-5.734
155700.000			-28.671			-5.734
155801.000			-28.671			-5.734
155900.000			-28.671			-5.734
156000.000			-28.670			-5.734
156102.000			-28.670			-5.734
156201.000			-28.670			-5.734
156301.000			-28.670			-5.734
156401.000			-28.669			-5.734
156500.000			-28.669			-5.734
156600.000			-28.668			-5.734
156701.000			-28.668			-5.734
156800.000			-28.668			-5.734
156900.000			-28.668			-5.734
157001.000			-28.668			-5.734
157101.000			-28.668			-5.734
157201.000			-28.669			-5.734
157302.000			-28.667			-5.733
157400.000			-28.666			-5.733
157500.000			-28.666			-5.733
157601.000			-28.666			-5.733
157700.000			-28.665			-5.733
157800.000			-28.665			-5.733
157901.000			-28.665			-5.733
158000.000			-28.665			-5.733
158101.000			-28.665			-5.733
158202.000			-28.664			-5.733
158301.000			-28.664			-5.733
158400.000			-28.663			-5.733
158501.000			-28.664			-5.733
158600.000			-28.664			-5.733
158700.000			-28.663			-5.733
158800.000			-28.662			-5.732
158900.000			-28.663			-5.733
159001.000			-28.662			-5.732
159101.000			-28.662			-5.732
159201.000			-28.661			-5.732
159302.000			-28.660			-5.732
159400.000			-28.660			-5.732
159500.000			-28.661			-5.732
159601.000			-28.661			-5.732
159700.000			-28.660			-5.732
159800.000			-28.659			-5.732
159901.000			-28.658			-5.732
160000.000			-28.660			-5.732
160101.000			-28.660			-5.732
160202.000			-28.659			-5.732
160301.000			-28.658			-5.732
160400.000			-28.658			-5.732
160501.000			-28.658			-5.732
160600.000			-28.658			-5.732
160700.000			-28.657			-5.731
160801.000			-28.656			-5.731
160900.000			-28.657			-5.731
161000.000			-28.657			-5.731
161102.000			-28.656			-5.731
161201.000			-28.656			-5.731
161301.000			-28.656			-5.731
161401.000			-28.655			-5.731
161500.000			-28.655			-5.731
161600.000			-28.655			-5.731
161701.000			-28.654			-5.731
161800.000			-28.655			-5.731
161900.000			-28.653			-5.731
162000.000			-28.654			-5.731
162101.000			-28.653			-5.731
162202.000			-28.652			-5.730
162300.000			-28.653			-5.731
162400.000			-28.653			-5.731
162501.000			-28.651			-5.730
162600.000			-28.651			-5.730
162700.000			-28.652			-5.730
162801.000			-28.652			-5.730
162900.000			-28.652			-5.730
163000.000			-28.652			-5.730
163102.000			-28.651			-5.730
163201.000			-28.652			-5.730
163300.000			-28.651			-5.730
163401.000			-28.651			-5.730
163500.000			-28.650			-5.730
163600.000			-28.650			-5.730
163701.000			-28.649			-5.730
163800.000			-28.648			-5.730
163900.000			-28.648			-5.730
164002.000			-28.649			-5.730
164101.000			-28.648			-5.730
164201.000			-28.647			-5.729
164301.000			-28.647			-5.729
164400.000			-28.647			-5.729
164500.000			-28.647			-5.729
164601.000			-28.646			-5.729
164700.000			-28.646			-5.729
164800.000			-28.646			-5.729
164901.000			-28.646			-5.729
165001.000			-28.645			-5.729
165102.000			-28.645			-5.729
165201.000			-28.645			-5.729
165300.000			-28.645			-5.729
165401.000			-28.645			-5.729
165500.000			-28.645			-5.729
165600.000			-28.643			-5.729
165701.000			-28.643			-5.729
165800.000			-28.642			-5.728
165900.000			-28.643			-5.729
166002.000			-28.643			-5.729
166101.000			-28.643			-5.729
166200.000			-28.643			-5.729
166301.000			-28.642			-5.728
166400.000			-28.642			-5.728
166500.000			-28.642			-5.728
166601.000			-28.641			-5.728
166700.000			-28.641			-5.728
166800.000			-28.640			-5.728
166902.000			-28.640			-5.728
167001.000			-28.640			-5.728
167101.000			-28.640			-5.728
167201.000			-28.639			-5.728
167300.000			-28.638			-5.728
167400.000			-28.638			-5.728
167501.000			-28.639			-5.728
167600.000			-28.639			-5.728
167700.000			-28.638			-5.728
167801.000			-28.637			-5.727
167901.000			-28.637			-5.727
168001.000			-28.637			-5.727
168102.000			-28.637			-5.727
168200.000			-28.637			-5.727
168300.000			-28.637			-5.727
168400.000			-28.637			-5.727
168500.000			-28.637			-5.727
168601.000			-28.636			-5.727
168700.000			-28.635			-5.727
168800.000			-28.634			-5.727
168902.000			-28.635			-5.727
169001.000			-28.635			-5.727
169101.000			-28.635			-5.727
169201.000			-28.635			-5.727
169300.000			-28.633			-5.727
169400.000			-28.633			-5.727
169501.000			-28.633			-5.727
169600.000			-28.632			-5.726
169700.000			-28.632			-5.726
169801.000			-28.633			-5.727
169901.000			-28.633			-5.727
170001.000			-28.632			-5.726
170102.000			-28.632			-5.726
170200.000			-28.632			-5.726
170300.000			-28.632			-5.726
170401.000			-28.632			-5.726
170500.000			-28.631			-5.726
170600.000			-28.631			-5.726
170701.000			-28.631			-5.726
170800.000			-28.630			-5.726
170901.000			-28.630			-5.726
171002.000			-28.629			-5.726
171100.000			-28.629			-5.726
171200.000			-28.629			-5.726
171301.000			-28.629			-5.726
171400.000			-28.628			-5.726
171500.000			-28.628			-5.726
171600.000			-28.628			-5.726
171700.000			-28.627			-5.725
171802.000			-28.627			-5.725
171901.000			-28.627			-5.725
172001.000			-28.628			-5.726
172101.000			-28.627			-5.725
172200.000			-28.626			-5.725
172300.000			-28.626			-5.725
172401.000			-28.625			-5.725
172500.000			-28.625			-5.725
172600.000			-28.626			-5.725
172701.000			-28.625			-5.725
172801.000			-28.625			-5.725
172901.000			-28.625			-5.725
173002.000			-28.625			-5.725
173100.000			-28.625			-5.725
173200.000			-28.624			-5.725
173301.000			-28.624			-5.725
173400.000			-28.623			-5.725
173500.000			-28.624			-5.725
173601.000			-28.624			-5.725
173701.000			-28.624			-5.725
173801.000			-28.623			-5.725
173902.000			-28.622			-5.724
174000.000			-28.621			-5.724
174100.000			-28.622			-5.724
174201.000			-28.622			-5.724
174300.000			-28.621			-5.724
174400.000			-28.620			-5.724
174501.000			-28.621			-5.724
174600.000			-28.620			-5.724
174702.000			-28.620			-5.724
174801.000			-28.620			-5.724
174901.000			-28.619			-5.724
175001.000			-28.620			-5.724
175100.000			-28.620			-5.724
175200.000			-28.620			-5.724
175301.000			-28.618			-5.724
175400.000			-28.617			-5.723
175500.000			-28.619			-5.724
175601.000			-28.618			-5.724
175700.000			-28.618			-5.724
175801.000			-28.619			-5.724
175902.000			-28.617			-5.723
176000.000			-28.617			-5.723
176100.000			-28.617			-5.723
176201.000			-28.617			-5.723
176300.000			-28.617			-5.723
176400.000			-28.617			-5.723
176501.000			-28.616			-5.723
176600.000			-28.616			-5.723
176700.000			-28.615			-5.723
176802.000			-28.615			-5.723
176901.000			-28.615			-5.723
177000.000			-28.615			-5.723
177101.000			-28.614			-5.723
177200.000			-28.614			-5.723
177300.000			-28.613			-5.723
177401.000			-28.613			-5.723
177500.000			-28.613			-5.723
177600.000			-28.614			-5.723
177702.000			-28.614			-5.723
177801.000			-28.613			-5.723
177902.000			-28.612			-5.722
178000.000			-28.612			-5.722
178100.000			-28.612			-5.722
178201.000			-28.612			-5.722
178300.000			-28.611			-5.722
178400.000			-28.612			-5.722
178501.000			-28.612			-5.722
178600.000			-28.611			-5.722
178701.000			-28.610			-5.722
178802.000			-28.609			-5.722
178901.000			-28.610			-5.722
179000.000			-28.610			-5.722
179101.000			-28.609			-5.722
179200.000			-28.608			-5.722
179300.000			-28.609			-5.722
179401.000			-28.609			-5.722
179500.000			-28.609			-5.722
179600.000			-28.608			-5.722
179702.000			-28.607			-5.721
179801.000			-28.608			-5.722
179901.000			-28.608			-5.722
180001.000			-28.608			-5.722
180100.000			-28.609			-5.722
180200.000			-28.607			-5.721
180301.000			-28.607			-5.721
180400.000			-28.607			-5.721
180500.000			-28.606			-5.721
180601.000			-28.606			-5.721
180701.000			-28.606			-5.721
180801.000			-28.606			-5.721
180902.000			-28.606			-5.721
181000.000			-28.605			-5.721
181100.000			-28.604			-5.721
181200.000			-28.605			-5.721
181300.000			-28.605			-5.721
181401.000			-28.604			-5.721
181500.000			-28.604			-5.721
181600.000			-28.603			-5.721
181702.000			-28.603			-5.721
181801.000			-28.602			-5.720
181900.000			-28.602			-5.720
182001.000			-28.602			-5.720
182100.000			-28.602			-5.720
182200.000			-28.603			-5.721
182301.000			-28.603			-5.721
182400.000			-28.602			-5.720
182500.000			-28.602			-5.720
182602.000			-28.602			-5.720
182701.000			-28.600			-5.720
182800.000			-28.600			-5.720
182901.000			-28.601			-5.720
183000.000			-28.601			-5.720
183100.000			-28.600			-5.720
183201.000			-28.599			-5.720
183300.000			-28.599			-5.720
183400.000			-28.598			-5.720
183501.000			-28.598			-5.720
183601.000			-28.598			-5.720
183701.000			-28.598			-5.720
183801.000			-28.598			-5.720
183900.000			-28.598			-5.720
184000.000			-28.598			-5.720
184101.000			-28.598			-5.720
184200.000			-28.597			-5.719
184300.000			-28.597			-5.719
184400.000			-28.597			-5.719
184500.000			-28.597			-5.719
184602.000			-28.595			-5.719
184701.000			-28.596			-5.719
184800.000			-28.596			-5.719
184901.000			-28.596			-5.719
185000.000			-28.596			-5.719
185100.000			-28.596			-5.719
185201.000			-28.595			-5.719
185300.000			-28.595			-5.719
185400.000			-28.594			-5.719
185501.000			-28.593			-5.719
185601.000			-28.593			-5.719
185701.000			-28.594			-5.719
185801.000			-28.593			-5.719
185900.000			-28.593			-5.719
186000.000			-28.592			-5.718
186101.000			-28.592			-5.718
186200.000			-28.592			-5.718
186300.000			-28.592			-5.718
186401.000			-28.592			-5.718
186501.000			-28.592			-5.718
186601.000			-28.592			-5.718
186702.000			-28.592			-5.718
186800.000			-28.591			-5.718
186900.000			-28.590			-5.718
187001.000			-28.590			-5.718
187100.000			-28.590			-5.718
187200.000			-28.590			-5.718
187301.000			-28.590			-5.718
187400.000			-28.589			-5.718
187500.000			-28.589			-5.718
187602.000			-28.588			-5.718
187701.000			-28.588			-5.718
187801.000			-28.588			-5.718
187900.000			-28.589			-5.718
188000.000			-28.588			-5.718
188101.000			-28.588			-5.718
188200.000			-28.588			-5.718
188300.000			-28.587			-5.717
188401.000			-28.587			-5.717
188500.000			-28.586			-5.717
188601.000			-28.586			-5.717
188702.000			-28.586			-5.717
188801.000			-28.586			-5.717
188900.000			-28.586			-5.717
189001.000			-28.585			-5.717
189100.000			-28.585			-5.717
189200.000			-28.585			-5.717
189301.000			-28.585			-5.717
189400.000			-28.586			-5.717
189500.000			-28.585			-5.717
189601.000			-28.584			-5.717
189701.000			-28.584			-5.717
189801.000			-28.583			-5.717
189901.000			-28.584			-5.717
190000.000			-28.584			-5.717
190100.000			-28.583			-5.717
190201.000			-28.583			-5.717
190300.000			-28.583			-5.717
190400.000			-28.582			-5.716
190501.000			-28.581			-5.716
190601.000			-28.582			-5.716
190702.000			-28.582			-5.716
190801.000			-28.580			-5.716
190900.000			-28.581			-5.716
191001.000			-28.581			-5.716
191100.000			-28.581			-5.716
191200.000			-28.580			-5.716
191301.000			-28.581			-5.716
191400.000			-28.580			-5.716
191500.000			-28.579			-5.716
191602.000			-28.579			-5.716
191701.000			-28.580			-5.716
191801.000			-28.580			-5.716
191901.000			-28.580			-5.716
192000.000			-28.578			-5.716
192100.000			-28.578			-5.716
192201.000			-28.578			-5.716
192300.000			-28.578			-5.716
192400.000			-28.578			-5.716
192501.000			-28.578			-5.716
192601.000			-28.578			-5.716
192701.000			-28.578			-5.716
192802.000			-28.578			-5.716
192900.000			-28.576			-5.715
193000.000			-28.576			-5.715
193101.000			-28.577			-5.715
193200.000			-28.576			-5.715
193300.000			-28.576			-5.715
193401.000			-28.576			-5.715
193500.000			-28.575			-5.715
193601.000			-28.574			-5.715
193702.000			-28.574			-5.715
193801.000			-28.575			-5.715
193900.000			-28.574			-5.715
194000.000			-28.574			-5.715
194100.000			-28.573			-5.715
194201.000			-28.573			-5.715
194300.000			-28.574			-5.715
194400.000			-28.573			-5.715
194501.000			-28.573			-5.715
194601.000			-28.573			-5.715
194701.000			-28.573			-5.715
194802.000			-28.571			-5.714
194900.000			-28.573			-5.715
195000.000			-28.573			-5.715
195101.000			-28.572			-5.714
195200.000			-28.571			-5.714
195300.000			-28.571			-5.714
195401.000			-28.571			-5.714
195500.000			-28.571			-5.714
195600.000			-28.572			-5.714
195702.000			-28.570			-5.714
195801.000			-28.571			-5.714
195900.000			-28.571			-5.714
196001.000			-28.570			-5.714
196100.000			-28.569			-5.714
196200.000			-28.568			-5.714
196301.000			-28.568			-5.714
196400.000			-28.569			-5.714
196500.000			-28.569			-5.714
196601.000			-28.569			-5.714
196701.000			-28.567			-5.713
196801.000			-28.568			-5.714
196901.000			-28.567			-5.713
197000.000			-28.567			-5.713
197100.000			-28.566			-5.713
197200.000			-28.566			-5.713
197300.000			-28.567			-5.713
197401.000			-28.566			-5.713
197500.000			-28.567			-5.713
197600.000			-28.566			-5.713
197702.000			-28.566			-5.713
197801.000			-28.567			-5.713
197901.000			-28.566			-5.713
198001.000			-28.565			-5.713
198100.000			-28.564			-5.713
198200.000			-28.563			-5.713
198301.000			-28.564			-5.713
198400.000			-28.565			-5.713
198500.000			-28.564			-5.713
198601.000			-28.564			-5.713
198701.000			-28.563			-5.713
198801.000			-28.562			-5.712
198902.000			-28.563			-5.713
199000.000			-28.563			-5.713
199100.000			-28.563			-5.713
199201.000			-28.563			-5.713
199300.000			-28.563			-5.713
199400.000			-28.563			-5.713
199501.000			-28.562			-5.712
199600.000			-28.562			-5.712
199700.000			-28.561			-5.712
199802.000			-28.560			-5.712
199901.000			-28.560			-5.712
200000.000			-28.560			-5.712
200101.000			-28.561			-5.712
200200.000			-28.561			-5.712
200300.000			-28.560			-5.712
200400.000			-28.560			-5.712
200500.000			-28.561			-5.712
200601.000			-28.560			-5.712
200701.000			-28.559			-5.712
200801.000			-28.560			-5.712
200901.000			-28.559			-5.712
201000.000			-28.559			-5.712
201100.000			-28.559			-5.712
201201.000			-28.558			-5.712
201300.000			-28.558			-5.712
201400.000			-28.558			-5.712
201501.000			-28.558			-5.712
201601.000			-28.558			-5.712
201701.000			-28.558			-5.712
201802.000			-28.558			-5.712
201900.000			-28.557			-5.711
202000.000			-28.556			-5.711
202101.000			-28.556			-5.711
202200.000			-28.556			-5.711
202300.000			-28.556			-5.711
202401.000			-28.556			-5.711
202500.000			-28.555			-5.711
202601.000			-28.556			-5.711
202702.000			-28.555			-5.711
202800.000			-28.554			-5.711
202900.000			-28.554			-5.711
203001.000			-28.556			-5.711
203100.000			-28.555			-5.711
203200.000			-28.554			-5.711
203301.000			-28.554			-5.711
203400.000			-28.553			-5.711
203502.000			-28.553			-5.711
203601.000			-28.552			-5.710
203701.000			-28.552			-5.710
203801.000			-28.552			-5.710
203900.000			-28.551			-5.710
204000.000			-28.551			-5.710
204101.000			-28.552			-5.710
204200.000			-28.553			-5.711
204300.000			-28.552			-5.710
204401.000			-28.551			-5.710
204501.000			-28.550			-5.710
204601.000			-28.551			-5.710
204701.000			-28.552			-5.710
204800.000			-28.552			-5.710
204900.000			-28.551			-5.710
205001.000			-28.549			-5.710
205100.000			-28.549			-5.710
205200.000			-28.549			-5.710
205301.000			-28.550			-5.710
205401.000			-28.550			-5.710
205501.000			-28.549			-5.710
205602.000			-28.549			-5.710
205700.000			-28.548			-5.710
205800.000			-28.548			-5.710
205901.000			-28.548			-5.710
206000.000			-28.547			-5.709
206100.000			-28.547			-5.709
206201.000			-28.547			-5.709
206300.000			-28.547			-5.709
206401.000			-28.546			-5.709
206502.000			-28.546			-5.709
206600.000			-28.545			-5.709
206700.000			-28.547			-5.709
206800.000			-28.547			-5.709
206900.000			-28.546			-5.709
207001.000			-28.546			-5.709
207100.000			-28.545			-5.709
207200.000			-28.544			-5.709
207302.000			-28.543			-5.709
207401.000			-28.545			-5.709
207501.000			-28.544			-5.709
207601.000			-28.544			-5.709
207700.000			-28.544			-5.709
207800.000			-28.544			-5.709
207901.000			-28.544			-5.709
208000.000			-28.543			-5.709
208100.000			-28.542			-5.708
208201.000			-28.544			-5.709
208301.000			-28.542			-5.708
208401.000			-28.542			-5.708
208501.000			-28.542			-5.708
208600.000			-28.542			-5.708
208700.000			-28.542			-5.708
208801.000			-28.541			-5.708
208900.000			-28.541			-5.708
209000.000			-28.541			-5.708
209101.000			-28.541			-5.708
209201.000			-28.540			-5.708
209301.000			-28.540			-5.708
209402.000			-28.540			-5.708
209500.000			-28.542			-5.708
209600.000			-28.540			-5.708
209701.000			-28.539			-5.708
209800.000			-28.539			-5.708
209900.000			-28.538			-5.708
210000.000			-28.538			-5.708
210100.000			-28.540			-5.708
210202.000			-28.539			-5.708
210301.000			-28.539			-5.708
210401.000			-28.538			-5.708
210501.000			-28.537			-5.707
210600.000			-28.538			-5.708
210700.000			-28.537			-5.707
210801.000			-28.537			-5.707
210900.000			-28.536			-5.707
211000.000			-28.536			-5.707
211102.000			-28.537			-5.707
211201.000			-28.537			-5.707
211301.000			-28.536			-5.707
211401.000			-28.535			-5.707
211500.000			-28.535			-5.707
211600.000			-28.536			-5.707
211701.000			-28.535			-5.707
211800.000			-28.535			-5.707
211900.000			-28.535			-5.707
212001.000			-28.534			-5.707
212101.000			-28.533			-5.707
212201.000			-28.534			-5.707
212301.000			-28.534			-5.707
212400.000			-28.533			-5.707
212500.000			-28.533			-5.707
212601.000			-28.533			-5.707
212700.000			-28.534			-5.707
212800.000			-28.533			-5.707
212901.000			-28.533			-5.707
213001.000			-28.532			-5.706
213102.000			-28.531			-5.706
213200.000			-28.533			-5.707
213300.000			-28.532			-5.706
213401.000			-28.532			-5.706
213500.000			-28.532			-5.706
213600.000			-28.531			-5.706
213701.000			-28.531			-5.706
213800.000			-28.530			-5.706
213901.000			-28.530			-5.706
214002.000			-28.529			-5.706
214100.000			-28.529			-5.706
214200.000			-28.530			-5.706
214301.000			-28.530			-5.706
214400.000			-28.529			-5.706
214500.000			-28.529			-5.706
214601.000			-28.528			-5.706
214700.000			-28.529			-5.706
214801.000			-28.529			-5.706
214902.000			-28.528			-5.706
215001.000			-28.527			-5.705
215100.000			-28.527			-5.705
215201.000			-28.528			-5.706
215300.000			-28.528			-5.706
215400.000			-28.527			-5.705
215501.000			-28.527			-5.705
215600.000			-28.527			-5.705
215700.000			-28.527			-5.705
215802.000			-28.526			-5.705
215901.000			-28.526			-5.705
216001.000			-28.526			-5.705
216101.000			-28.526			-5.705
216200.000			-28.525			-5.705
216300.000			-28.525			-5.705
216400.000			-28.525			-5.705
216500.000			-28.525			-5.705
216601.000			-28.526			-5.705
216701.000			-28.525			-5.705
216801.000			-28.525			-5.705
216902.000			-28.525			-5.705
217000.000			-28.525			-5.705
217100.000			-28.524			-5.705
217201.000			-28.524			-5.705
217300.000			-28.524			-5.705
217400.000			-28.523			-5.705
217501.000			-28.523			-5.705
217600.000			-28.523			-5.705
217701.000			-28.523			-5.705
217802.000			-28.522			-5.704
217901.000			-28.522			-5.704
218000.000			-28.522			-5.704
218101.000			-28.523			-5.705
218200.000			-28.524			-5.705
218300.000			-28.522			-5.704
218401.000			-28.521			-5.704
218500.000			-28.521			-5.704
218600.000			-28.521			-5.704
218702.000			-28.520			-5.704
218801.000			-28.519			-5.704
218900.000			-28.519			-5.704
219001.000			-28.520			-5.704
219100.000			-28.519			-5.704
219200.000			-28.519			-5.704
219301.000			-28.520			-5.704
219400.000			-28.519			-5.704
219500.000			-28.519			-5.704
219602.000			-28.518			-5.704
219701.000			-28.518			-5.704
219802.000			-28.518			-5.704
219900.000			-28.518			-5.704
220000.000			-28.518			-5.704
220101.000			-28.518			-5.704
220200.000			-28.517			-5.703
220300.000			-28.517			-5.703
220401.000			-28.516			-5.703
220500.000			-28.516			-5.703
220601.000			-28.517			-5.703
220702.000			-28.517			-5.703
220800.000			-28.516			-5.703
220900.000			-28.516			-5.703
221001.000			-28.516			-5.703
221100.000			-28.516			-5.703
221200.000			-28.516			-5.703
221301.000			-28.515			-5.703
221400.000			-28.515			-5.703
221501.000			-28.515			-5.703
221602.000			-28.514			-5.703
221701.000			-28.514			-5.703
221800.000			-28.514			-5.703
221901.000			-28.513			-5.703
222000.000			-28.513			-5.703
222100.000			-28.514			-5.703
222201.000			-28.513			-5.703
222300.000			-28.512			-5.702
222401.000			-28.512			-5.702
222502.000			-28.512			-5.702
222601.000			-28.512			-5.702
222700.000			-28.513			-5.703
222800.000			-28.511			-5.702
222900.000			-28.512			-5.702
223001.000			-28.513			-5.703
223100.000			-28.512			-5.702
223200.000			-28.512			-5.702
223301.000			-28.510			-5.702
223401.000			-28.510			-5.702
223501.000			-28.511			-5.702
223601.000			-28.509			-5.702
223700.000			-28.509			-5.702
223800.000			-28.510			-5.702
223901.000			-28.509			-5.702
224000.000			-28.509			-5.702
224100.000			-28.510			-5.702
224201.000			-28.510			-5.702
224301.000			-28.509			-5.702
224401.000			-28.509			-5.702
224501.000			-28.510			-5.702
224600.000			-28.509			-5.702
224700.000			-28.509			-5.702
224801.000			-28.509			-5.702
224900.000			-28.509			-5.702
225000.000			-28.508			-5.702
225101.000			-28.508			-5.702
225201.000			-28.508			-5.702
225301.000			-28.507			-5.701
225402.000			-28.507			-5.701
225500.000			-28.507			-5.701
225600.000			-28.507			-5.701
225701.000			-28.507			-5.701
225800.000			-28.506			-5.701
225900.000			-28.506			-5.701
226000.000			-28.506			-5.701
226100.000			-28.506			-5.701
226202.000			-28.506			-5.701
226301.000			-28.505			-5.701
226400.000			-28.505			-5.701
226501.000			-28.505			-5.701
226600.000			-28.505			-5.701
226700.000			-28.505			-5.701
226801.000			-28.504			-5.701
226900.000			-28.504			-5.701
227000.000			-28.504			-5.701
227102.000			-28.503			-5.701
227201.000			-28.503			-5.701
227301.000			-28.503			-5.701
227401.000			-28.503			-5.701
227500.000			-28.502			-5.700
227600.000			-28.502			-5.700
227701.000			-28.503			-5.701
227800.000			-28.503			-5.701
227900.000			-28.502			-5.700
228002.000			-28.501			-5.700
228101.000			-28.501			-5.700
228201.000			-28.502			-5.700
228301.000			-28.501			-5.700
228400.000			-28.501			-5.700
228500.000			-28.501			-5.700
228601.000			-28.502			-5.700
228700.000			-28.501			-5.700
228800.000			-28.501			-5.700
228901.000			-28.501			-5.700
229001.000			-28.500			-5.700
229102.000			-28.499			-5.700
229201.000			-28.499			-5.700
229300.000			-28.499			-5.700
229401.000			-28.499			-5.700
229500.000			-28.500			-5.700
229600.000			-28.498			-5.700
229701.000			-28.497			-5.699
229800.000			-28.499			-5.700
229900.000			-28.500			-5.700
230002.000			-28.498			-5.700
230101.000			-28.497			-5.699
230201.000			-28.497			-5.699
230301.000			-28.497			-5.699
230400.000			-28.498			-5.700
230500.000			-28.497			-5.699
230601.000			-28.497			-5.699
230700.000			-28.497			-5.699
230800.000			-28.496			-5.699
230901.000			-28.497			-5.699
231001.000			-28.496			-5.699
231101.000			-28.495			-5.699
231202.000			-28.495			-5.699
231300.000			-28.495			-5.699
231400.000			-28.495			-5.699
231501.000			-28.495			-5.699
231600.000			-28.494			-5.699
231700.000			-28.493			-5.699
231801.000			-28.493			-5.699
231900.000			-28.494			-5.699
232001.000			-28.494			-5.699
232102.000			-28.494			-5.699
232200.000			-28.493			-5.699
232300.000			-28.493			-5.699
232400.000			-28.493			-5.699
232500.000			-28.493			-5.699
232601.000			-28.493			-5.699
232700.000			-28.494			-5.699
232800.000			-28.493			-5.699
232902.000			-28.492			-5.698
233001.000			-28.492			-5.698
233101.000			-28.493			-5.699
233201.000			-28.492			-5.698
233300.000			-28.491			-5.698
233400.000			-28.491			-5.698
233501.000			-28.491			-5.698
233600.000			-28.492			-5.698
233700.000			-28.491			-5.698
233801.000			-28.491			-5.698
233901.000			-28.490			-5.698
234001.000			-28.490			-5.698
234101.000			-28.490			-5.698
234200.000			-28.490			-5.698
234300.000			-28.489			-5.698
234401.000			-28.490			-5.698
234500.000			-28.489			-5.698
234600.000			-28.488			-5.698
234701.000			-28.489			-5.698
234800.000			-28.489			-5.698
234901.000			-28.488			-5.698
235002.000			-28.488			-5.698
235100.000			-28.488			-5.698
235200.000			-28.488			-5.698
235301.000			-28.488			-5.698
235400.000			-28.488			-5.698
235500.000			-28.489			-5.698
235600.000			-28.488			-5.698
235700.000			-28.487			-5.697
235801.000			-28.487			-5.697
235901.000			-28.487			-5.697
236001.000			-28.486			-5.697
236101.000			-28.485			-5.697
236200.000			-28.487			-5.697
236300.000			-28.487			-5.697
236401.000			-28.486			-5.697
236500.000			-28.485			-5.697
236600.000			-28.486			-5.697
236701.000			-28.486			-5.697
236800.000			-28.484			-5.697
236901.000			-28.484			-5.697
237002.000			-28.484			-5.697
237100.000			-28.483			-5.697
237200.000			-28.483			-5.697
237301.000			-28.483			-5.697
237400.000			-28.484			-5.697
237500.000			-28.483			-5.697
237601.000			-28.483			-5.697
237700.000			-28.484			-5.697
237800.000			-28.483			-5.697
237902.000			-28.483			-5.697
238001.000			-28.483			-5.697
238100.000			-28.482			-5.696
238201.000			-28.481			-5.696
238300.000			-28.482			-5.696
238400.000			-28.482			-5.696
238501.000			-28.482			-5.696
238600.000			-28.482			-5.696
238700.000			-28.482			-5.696
238802.000			-28.481			-5.696
238901.000			-28.481			-5.696
239002.000			-28.480			-5.696
239100.000			-28.480			-5.696
239200.000			-28.481			-5.696
239301.000			-28.481			-5.696
239400.000			-28.480			-5.696
239500.000			-28.480			-5.696
239601.000			-28.480			-5.696
239700.000			-28.480			-5.696
239801.000			-28.480			-5.696
239902.000			-28.480			-5.696
240001.000			-28.479			-5.696
240100.000			-28.479			-5.696
240201.000			-28.480			-5.696
240300.000			-28.478			-5.696
240400.000			-28.478			-5.696
240501.000			-28.478			-5.696
240600.000			-28.478			-5.696
240700.000			-28.477			-5.695
240802.000			-28.477			-5.695
240901.000			-28.476			-5.695
241000.000			-28.477			-5.695
241101.000			-28.476			-5.695
241200.000			-28.477			-5.695
241300.000			-28.476			-5.695
241401.000			-28.476			-5.695
241500.000			-28.476			-5.695
241600.000			-28.476			-5.695
241702.000			-28.477			-5.695
241801.000			-28.476			-5.695
241902.000			-28.476			-5.695
242000.000			-28.475			-5.695
242100.000			-28.475			-5.695
242201.000			-28.474			-5.695
242300.000			-28.475			-5.695
242400.000			-28.475			-5.695
242501.000			-28.473			-5.695
242600.000			-28.474			-5.695
242701.000			-28.474			-5.695
242802.000			-28.474			-5.695
242901.000			-28.473			-5.695
243000.000			-28.474			-5.695
243101.000			-28.472			-5.694
243200.000			-28.473			-5.695
243300.000			-28.472			-5.694
243401.000			-28.472			-5.694
243500.000			-28.472			-5.694
243600.000			-28.472			-5.694
243702.000			-28.472			-5.694
243801.000			-28.472			-5.694
243900.000			-28.472			-5.694
244001.000			-28.472			-5.694
244100.000			-28.472			-5.694
244200.000			-28.471			-5.694
244301.000			-28.471			-5.694
244400.000			-28.471			-5.694
244500.000			-28.470			-5.694
244602.000			-28.470			-5.694
244701.000			-28.470			-5.694
244801.000			-28.469			-5.694
244901.000			-28.469			-5.694
245000.000			-28.470			-5.694
245100.000			-28.470			-5.694
245200.000			-28.470			-5.694
245300.000			-28.468			-5.694
245401.000			-28.468			-5.694
245500.000			-28.469			-5.694
245601.000			-28.469			-5.694
245702.000			-28.468			-5.694
245801.000			-28.468			-5.694
245900.000			-28.469			-5.694
246001.000			-28.468			-5.694
246100.000			-28.467			-5.693
246200.000			-28.468			-5.694
246301.000			-28.466			-5.693
246400.000			-28.466			-5.693
246500.000			-28.467			-5.693
246602.000			-28.467			-5.693
246701.000			-28.466			-5.693
246801.000			-28.466			-5.693
246901.000			-28.465			-5.693
247000.000			-28.466			-5.693
247100.000			-28.465			-5.693
247201.000			-28.465			-5.693
247300.000			-28.465			-5.693
247400.000			-28.466			-5.693
247501.000			-28.466			-5.693
247601.000			-28.465			-5.693
247701.000			-28.465			-5.693
247802.000			-28.463			-5.693
247900.000			-28.464			-5.693
248000.000			-28.463			-5.693
248101.000			-28.463			-5.693
248200.000			-28.464			-5.693
248300.000			-28.464			-5.693
248400.000			-28.463			-5.693
248500.000			-28.462			-5.692
248601.000			-28.463			-5.693
248701.000			-28.463			-5.693
248801.000			-28.462			-5.692
248901.000			-28.461			-5.692
249000.000			-28.462			-5.692
249100.000			-28.462			-5.692
249201.000			-28.461			-5.692
249300.000			-28.461			-5.692
249400.000			-28.460			-5.692
249501.000			-28.460			-5.692
249601.000			-28.461			-5.692
249701.000			-28.461			-5.692
249802.000			-28.462			-5.692
249900.000			-28.460			-5.692
250000.000			-28.460			-5.692
250101.000			-28.460			-5.692
250200.000			-28.460			-5.692
250300.000			-28.460			-5.692
250401.000			-28.459			-5.692
250500.000			-28.459			-5.692
250601.000			-28.459			-5.692
250702.000			-28.460			-5.692
250801.000			-28.459			-5.692
250900.000			-28.459			-5.692
251001.000			-28.459			-5.692
251100.000			-28.458			-5.692
251200.000			-28.458			-5.692
251301.000			-28.458			-5.692
251400.000			-28.459			-5.692
251500.000			-28.459			-5.692
251602.000			-28.457			-5.691
251701.000			-28.458			-5.692
251802.000			-28.457			-5.691
251900.000			-28.457			-5.691
252000.000			-28.457			-5.691
252101.000			-28.456			-5.691
252200.000			-28.456			-5.691
252300.000			-28.455			-5.691
252401.000			-28.455			-5.691
252500.000			-28.456			-5.691
252601.000			-28.456			-5.691
252702.000			-28.455			-5.691
252800.000			-28.455			-5.691
252900.000			-28.455			-5.691
253001.000			-28.454			-5.691
253100.000			-28.455			-5.691
253200.000			-28.455			-5.691
253301.000			-28.454			-5.691
253400.000			-28.453			-5.691
253501.000			-28.454			-5.691
253602.000			-28.453			-5.691
253701.000			-28.453			-5.691
253800.000			-28.453			-5.691
253901.000			-28.453			-5.691
254000.000			-28.454			-5.691
254100.000			-28.454			-5.691
254201.000			-28.453			-5.691
254300.000			-28.452			-5.690
254400.000			-28.452			-5.690
254502.000			-28.452			-5.690
254601.000			-28.452			-5.690
254700.000			-28.452			-5.690
254800.000			-28.452			-5.690
254900.000			-28.452			-5.690
255001.000			-28.451			-5.690
255100.000			-28.451			-5.690
255200.000			-28.450			-5.690
255301.000			-28.450			-5.690
255401.000			-28.450			-5.690
255501.000			-28.450			-5.690
255602.000			-28.451			-5.690
255700.000			-28.451			-5.690
255800.000			-28.451			-5.690
255901.000			-28.450			-5.690
256000.000			-28.449			-5.690
256100.000			-28.449			-5.690
256201.000			-28.449			-5.690
256300.000			-28.449			-5.690
256401.000			-28.448			-5.690
256502.000			-28.448			-5.690
256601.000			-28.448			-5.690
256700.000			-28.448			-5.690
256801.000			-28.448			-5.690
256900.000			-28.447			-5.689
257000.000			-28.448			-5.690
257101.000			-28.448			-5.690
257200.000			-28.447			-5.689
257300.000			-28.446			-5.689
257402.000			-28.447			-5.689
257501.000			-28.447			-5.689
257600.000			-28.446			-5.689
257701.000			-28.446			-5.689
257800.000			-28.446			-5.689
257900.000			-28.446			-5.689
258000.000			-28.446			-5.689
258100.000			-28.445			-5.689
258201.000			-28.445			-5.689
258300.000			-28.445			-5.689
258401.000			-28.445			-5.689
258502.000			-28.445			-5.689
258600.000			-28.445			-5.689
258700.000			-28.445			-5.689
258801.000			-28.445			-5.689
258900.000			-28.444			-5.689
259000.000			-28.444			-5.689
259101.000			-28.444			-5.689
259200.000			-28.444			-5.689
259300.000			-28.443			-5.689
259402.000			-28.442			-5.688
259501.000			-28.443			-5.689
259600.000			-28.443			-5.689
259701.000			-28.443			-5.689
259800.000			-28.443			-5.689
259900.000			-28.442			-5.688
260001.000			-28.442			-5.688
260100.000			-28.443			-5.689
260200.000			-28.441			-5.688
260302.000			-28.441			-5.688
260401.000			-28.442			-5.688
260500.000			-28.442			-5.688
260601.000			-28.441			-5.688
260700.000			-28.440			-5.688
260800.000			-28.441			-5.688
260901.000			-28.441			-5.688
261000.000			-28.441			-5.688
261100.000			-28.442			-5.688
261202.000			-28.441			-5.688
261301.000			-28.440			-5.688
261402.000			-28.439			-5.688
261500.000			-28.439			-5.688
261600.000			-28.440			-5.688
261701.000			-28.440			-5.688
261800.000			-28.440			-5.688
261900.000			-28.440			-5.688
262001.000			-28.439			-5.688
262100.000			-28.439			-5.688
262201.000			-28.438			-5.688
262302.000			-28.437			-5.687
262401.000			-28.439			-5.688
262500.000			-28.438			-5.688
262601.000			-28.438			-5.688
262700.000			-28.438			-5.688
262800.000			-28.438			-5.688
262901.000			-28.439			-5.688
263000.000			-28.438			-5.688
263100.000			-28.437			-5.687
263202.000			-28.437			-5.687
263301.000			-28.437			-5.687
263400.000			-28.437			-5.687
263501.000			-28.437			-5.687
263600.000			-28.437			-5.687
263700.000			-28.436			-5.687
263801.000			-28.436			-5.687
263900.000			-28.436			-5.687
264000.000			-28.435			-5.687
264102.000			-28.435			-5.687
264201.000			-28.435			-5.687
264302.000			-28.436			-5.687
264400.000			-28.435			-5.687
264500.000			-28.434			-5.687
264601.000			-28.434			-5.687
264700.000			-28.435			-5.687
264800.000			-28.433			-5.687
264901.000			-28.432			-5.686
265000.000			-28.432			-5.686
265101.000			-28.433			-5.687
265202.000			-28.434			-5.687
265301.000			-28.433			-5.687
265400.000			-28.433			-5.687
265501.000			-28.433			-5.687
265600.000			-28.432			-5.686
265700.000			-28.431			-5.686
265801.000			-28.432			-5.686
265900.000			-28.432			-5.686
266000.000			-28.431			-5.686
266102.000			-28.432			-5.686
266201.000			-28.431			-5.686
266300.000			-28.431			-5.686
266401.000			-28.431			-5.686
266500.000			-28.430			-5.686
266600.000			-28.430			-5.686
266701.000			-28.431			-5.686
266800.000			-28.430			-5.686
266900.000			-28.430			-5.686
267002.000			-28.429			-5.686
267101.000			-28.429			-5.686
267201.000			-28.428			-5.686
267301.000			-28.428			-5.686
267400.000			-28.429			-5.686
267500.000			-28.429			-5.686
267600.000			-28.429			-5.686
267700.000			-28.429			-5.686
267801.000			-28.430			-5.686
267900.000			-28.429			-5.686
268001.000			-28.428			-5.686
268102.000			-28.428			-5.686
268201.000			-28.427			-5.685
268300.000			-28.427			-5.685
268401.000			-28.426			-5.685
268500.000			-28.427			-5.685
268600.000			-28.427			-5.685
268701.000			-28.427			-5.685
268800.000			-28.426			-5.685
268900.000			-28.427			-5.685
269002.000			-28.426			-5.685
269101.000			-28.426			-5.685
269201.000			-28.426			-5.685
269301.000			-28.425			-5.685
269400.000			-28.426			-5.685
269500.000			-28.425			-5.685
269601.000			-28.425			-5.685
269700.000			-28.425			-5.685
269800.000			-28.425			-5.685
269901.000			-28.425			-5.685
270001.000			-28.425			-5.685
270101.000			-28.424			-5.685
270201.000			-28.424			-5.685
270300.000			-28.425			-5.685
270400.000			-28.424			-5.685
270501.000			-28.424			-5.685
270600.000			-28.425			-5.685
270700.000			-28.424			-5.685
270800.000			-28.423			-5.685
270901.000			-28.423			-5.685
271002.000			-28.423			-5.685
271101.000			-28.422			-5.684
271200.000			-28.421			-5.684
271301.000			-28.422			-5.684
271400.000			-28.422			-5.684
271500.000			-28.421			-5.684
271601.000			-28.422			-5.684
271700.000			-28.422			-5.684
271800.000			-28.421			-5.684
271902.000			-28.422			-5.684
272001.000			-28.423			-5.685
272100.000			-28.422			-5.684
272201.000			-28.421			-5.684
272300.000			-28.421			-5.684
272400.000			-28.420			-5.684
272501.000			-28.419			-5.684
272600.000			-28.421			-5.684
272700.000			-28.420			-5.684
272802.000			-28.420			-5.684
272901.000			-28.421			-5.684
273000.000			-28.420			-5.684
273101.000			-28.419			-5.684
273200.000			-28.419			-5.684
273300.000			-28.419			-5.684
273401.000			-28.418			-5.684
273500.000			-28.418			-5.684
273600.000			-28.418			-5.684
273702.000			-28.417			-5.683
273801.000			-28.417			-5.683
273902.000			-28.419			-5.684
274000.000			-28.419			-5.684
274100.000			-28.418			-5.684
274201.000			-28.417			-5.683
274300.000			-28.417			-5.683
274400.000			-28.417			-5.683
274501.000			-28.418			-5.684
274600.000			-28.417			-5.683
274701.000			-28.416			-5.683
274802.000			-28.418			-5.684
274901.000			-28.418			-5.684
275000.000			-28.417			-5.683
275101.000			-28.415			-5.683
275200.000			-28.416			-5.683
275300.000			-28.416			-5.683
275401.000			-28.417			-5.683
275500.000			-28.416			-5.683
275600.000			-28.416			-5.683
275702.000			-28.416			-5.683
275801.000			-28.415			-5.683
275901.000			-28.414			-5.683
276001.000			-28.415			-5.683
276100.000			-28.415			-5.683
276200.000			-28.415			-5.683
276301.000			-28.415			-5.683
276400.000			-28.415			-5.683
276500.000			-28.414			-5.683
276602.000			-28.414			-5.683
276701.000			-28.414			-5.683
276801.000			-28.413			-5.683
276901.000			-28.413			-5.683
277000.000			-28.413			-5.683
277100.000			-28.413			-5.683
277200.000			-28.413			-5.683
277300.000			-28.412			-5.682
277401.000			-28.411			-5.682
277500.000			-28.412			-5.682
277601.000			-28.413			-5.683
277702.000			-28.412			-5.682
277801.000			-28.411			-5.682
277900.000			-28.412			-5.682
278001.000			-28.411			-5.682
278100.000			-28.411			-5.682
278200.000			-28.410			-5.682
278301.000			-28.411			-5.682
278400.000			-28.412			-5.682
278500.000			-28.411			-5.682
278602.000			-28.411			-5.682
278701.000			-28.410			-5.682
278800.000			-28.410			-5.682
278901.000			-28.410			-5.682
279000.000			-28.409			-5.682
279100.000			-28.409			-5.682
279201.000			-28.410			-5.682
279300.000			-28.410			-5.682
279400.000			-28.409			-5.682
279502.000			-28.409			-5.682
279601.000			-28.409			-5.682
279701.000			-28.408			-5.682
279801.000			-28.408			-5.682
279900.000			-28.408			-5.682
280000.000			-28.408			-5.682
280101.000			-28.409			-5.682
280200.000			-28.409			-5.682
280300.000			-28.408			-5.682
280400.000			-28.409			-5.682
280501.000			-28.407			-5.681
280602.000			-28.407			-5.681
280701.000			-28.407			-5.681
280800.000			-28.406			-5.681
280901.000			-28.407			-5.681
281000.000			-28.407			-5.681
281100.000			-28.406			-5.681
281201.000			-28.406			-5.681
281300.000			-28.406			-5.681
281401.000			-28.406			-5.681
281502.000			-28.406			-5.681
281601.000			-28.405			-5.681
281700.000			-28.405			-5.681
281801.000			-28.405			-5.681
281900.000			-28.405			-5.681
282000.000			-28.405			-5.681
282101.000			-28.404			-5.681
282200.000			-28.404			-5.681
282300.000			-28.404			-5.681
282402.000			-28.404			-5.681
282501.000			-28.404			-5.681
282600.000			-28.404			-5.681
282701.000			-28.404			-5.681
282800.000			-28.403			-5.681
282900.000			-28.404			-5.681
283001.000			-28.404			-5.681
283100.000			-28.404			-5.681
283200.000			-28.403			-5.681
283302.000			-28.403			-5.681
283401.000			-28.403			-5.681
283500.000			-28.403			-5.681
283600.000			-28.403			-5.681
283700.000			-28.403			-5.681
283801.000			-28.403			-5.681
283900.000			-28.403			-5.681
284000.000			-28.402			-5.680
284101.000			-28.401			-5.680
284201.000			-28.401			-5.680
284301.000			-28.401			-5.680
284402.000			-28.401			-5.680
284500.000			-28.401			-5.680
284600.000			-28.400			-5.680
284701.000			-28.401			-5.680
284800.000			-28.401			-5.680
284900.000			-28.401			-5.680
285001.000			-28.401			-5.680
285100.000			-28.401			-5.680
285201.000			-28.401			-5.680
285302.000			-28.400			-5.680
285400.000			-28.400			-5.680
285500.000			-28.400			-5.680
285601.000			-28.400			-5.680
285700.000			-28.399			-5.680
285800.000			-28.399			-5.680
285901.000			-28.399			-5.680
286000.000			-28.398			-5.680
286100.000			-28.399			-5.680
286202.000			-28.399			-5.680
286301.000			-28.399			-5.680
286400.000			-28.398			-5.680
286501.000			-28.398			-5.680
286600.000			-28.398			-5.680
286700.000			-28.398			-5.680
286800.000			-28.398			-5.680
286900.000			-28.398			-5.680
287001.000			-28.398			-5.680
287100.000			-28.397			-5.679
287201.000			-28.396			-5.679
287302.000			-28.396			-5.679
287400.000			-28.397			-5.679
287500.000			-28.397			-5.679
287601.000			-28.397			-5.679
287700.000			-28.397			-5.679
287800.000			-28.397			-5.679
287901.000			-28.396			-5.679
288000.000			-28.395			-5.679
288100.000			-28.395			-5.679
288202.000			-28.395			-5.679
288301.000			-28.396			-5.679
288401.000			-28.395			-5.679
288501.000			-28.394			-5.679
288600.000			-28.395			-5.679
288700.000			-28.395			-5.679
288801.000			-28.395			-5.679
288900.000			-28.394			-5.679
289000.000			-28.393			-5.679
289101.000			-28.393			-5.679
289201.000			-28.393			-5.679
289301.000			-28.394			-5.679
289402.000			-28.393			-5.679
289500.000			-28.392			-5.678
289600.000			-28.392			-5.678
289701.000			-28.393			-5.679
289800.000			-28.393			-5.679
289900.000			-28.393			-5.679
290000.000			-28.393			-5.679
290100.000			-28.393			-5.679
290202.000			-28.392			-5.678
290301.000			-28.392			-5.678
290401.000			-28.392			-5.678
290501.000			-28.391			-5.678
290600.000			-28.391			-5.678
290700.000			-28.391			-5.678
290801.000			-28.392			-5.678
290900.000			-28.390			-5.678
291000.000			-28.390			-5.678
291101.000			-28.390			-5.678
291201.000			-28.389			-5.678
291301.000			-28.389			-5.678
291401.000			-28.390			-5.678
291500.000			-28.390			-5.678
291600.000			-28.390			-5.678
291701.000			-28.389			-5.678
291800.000			-28.389			-5.678
291900.000			-28.389			-5.678
292001.000			-28.389			-5.678
292101.000			-28.390			-5.678
292201.000			-28.389			-5.678
292302.000			-28.390			-5.678
292400.000			-28.389			-5.678
292500.000			-28.389			-5.678
292601.000			-28.388			-5.678
292700.000			-28.387			-5.677
292800.000			-28.388			-5.678
292901.000			-28.388			-5.678
293000.000			-28.387			-5.677
293100.000			-28.387			-5.677
293202.000			-28.387			-5.677
293301.000			-28.387			-5.677
293401.000			-28.387			-5.677
293500.000			-28.387			-5.677
293600.000			-28.386			-5.677
293701.000			-28.387			-5.677
293800.000			-28.387			-5.677
293900.000			-28.387			-5.677
294001.000			-28.386			-5.677
294101.000			-28.385			-5.677
294201.000			-28.386			-5.677
294302.000			-28.386			-5.677
294400.000			-28.385			-5.677
294500.000			-28.385			-5.677
294601.000			-28.385			-5.677
294700.000			-28.385			-5.677
294800.000			-28.384			-5.677
294901.000			-28.384			-5.677
295000.000			-28.383			-5.677
295101.000			-28.383			-5.677
295202.000			-28.385			-5.677
295301.000			-28.385			-5.677
295400.000			-28.383			-5.677
295501.000			-28.383			-5.677
295600.000			-28.384			-5.677
295700.000			-28.383			-5.677
295801.000			-28.383			-5.677
295900.000			-28.384			-5.677
296000.000			-28.383			-5.677
296102.000			-28.383			-5.677
296201.000			-28.383			-5.677
296302.000			-28.383			-5.677
296400.000			-28.383			-5.677
296500.000			-28.382			-5.676
296601.000			-28.383			-5.677
296700.000			-28.382			-5.676
296800.000			-28.382			-5.676
296901.000			-28.382			-5.676
297000.000			-28.381			-5.676
297101.000			-28.380			-5.676
297202.000			-28.380			-5.676
297301.000			-28.381			-5.676
297400.000			-28.381			-5.676
297501.000			-28.381			-5.676
297600.000			-28.381			-5.676
297700.000			-28.380			-5.676
297801.000			-28.381			-5.676
297900.000			-28.380			-5.676
298000.000			-28.380			-5.676
298102.000			-28.380			-5.676
298201.000			-28.379			-5.676
298301.000			-28.379			-5.676
298401.000			-28.379			-5.676
298500.000			-28.380			-5.676
298600.000			-28.380			-5.676
298701.000			-28.379			-5.676
298800.000			-28.379			-5.676
298900.000			-28.379			-5.676
299001.000			-28.378			-5.676
299100.000			-28.379			-5.676
299201.000			-28.379			-5.676
299302.000			-28.378			-5.676
299400.000			-28.379			-5.676
299500.000			-28.378			-5.676
299600.000			-28.378			-5.676
299700.000			-28.378			-5.676
299801.000			-28.377			-5.675
299900.000			-28.377			-5.675
