# Acquired on 08/01/2024 17:57:12 
# SPIDER: Creep_6mm_07714532C-2
# CREEP MEASUREMENT

# time [ms]		force [N]		stiffness [N/mm]
0.000			-13.189			-2.198
100.000			-14.001			-2.334
200.000			-14.324			-2.387
300.000			-14.358			-2.393
400.000			-14.257			-2.376
502.000			-14.219			-2.370
601.000			-14.187			-2.365
700.000			-14.158			-2.360
801.000			-14.133			-2.356
900.000			-14.112			-2.352
1000.000			-14.091			-2.349
1101.000			-14.054			-2.342
1201.000			-14.038			-2.340
1301.000			-14.024			-2.337
1401.000			-14.011			-2.335
1500.000			-13.996			-2.333
1600.000			-13.982			-2.330
1701.000			-13.970			-2.328
1800.000			-13.948			-2.325
1900.000			-13.938			-2.323
2002.000			-13.928			-2.321
2101.000			-13.918			-2.320
2200.000			-13.908			-2.318
2301.000			-13.898			-2.316
2400.000			-13.890			-2.315
2500.000			-13.881			-2.314
2601.000			-13.867			-2.311
2701.000			-13.859			-2.310
2801.000			-13.851			-2.309
2901.000			-13.844			-2.307
3000.000			-13.837			-2.306
3100.000			-13.831			-2.305
3201.000			-13.824			-2.304
3300.000			-13.811			-2.302
3400.000			-13.805			-2.301
3502.000			-13.799			-2.300
3601.000			-13.793			-2.299
3701.000			-13.787			-2.298
3800.000			-13.781			-2.297
3900.000			-13.775			-2.296
4001.000			-13.764			-2.294
4100.000			-13.759			-2.293
4200.000			-13.754			-2.292
4302.000			-13.750			-2.292
4401.000			-13.746			-2.291
4500.000			-13.739			-2.290
4601.000			-13.734			-2.289
4700.000			-13.726			-2.288
4800.000			-13.722			-2.287
4901.000			-13.718			-2.286
5000.000			-13.713			-2.285
5101.000			-13.708			-2.285
5201.000			-13.704			-2.284
5300.000			-13.700			-2.283
5400.000			-13.696			-2.283
5501.000			-13.689			-2.282
5600.000			-13.684			-2.281
5700.000			-13.681			-2.280
5802.000			-13.677			-2.280
5901.000			-13.674			-2.279
6000.000			-13.670			-2.278
6101.000			-13.667			-2.278
6200.000			-13.658			-2.276
6300.000			-13.655			-2.276
6401.000			-13.651			-2.275
6500.000			-13.648			-2.275
6602.000			-13.645			-2.274
6701.000			-13.643			-2.274
6800.000			-13.639			-2.273
6901.000			-13.632			-2.272
7000.000			-13.629			-2.271
7100.000			-13.625			-2.271
7201.000			-13.622			-2.270
7300.000			-13.620			-2.270
7401.000			-13.617			-2.270
7502.000			-13.614			-2.269
7600.000			-13.609			-2.268
7700.000			-13.605			-2.268
7801.000			-13.603			-2.267
7900.000			-13.601			-2.267
8000.000			-13.597			-2.266
8102.000			-13.594			-2.266
8201.000			-13.590			-2.265
8300.000			-13.586			-2.264
8401.000			-13.584			-2.264
8500.000			-13.581			-2.264
8600.000			-13.579			-2.263
8701.000			-13.576			-2.263
8800.000			-13.574			-2.262
8901.000			-13.572			-2.262
9002.000			-13.568			-2.261
9100.000			-13.563			-2.260
9200.000			-13.560			-2.260
9301.000			-13.559			-2.260
9400.000			-13.557			-2.259
9500.000			-13.554			-2.259
9601.000			-13.553			-2.259
9701.000			-13.550			-2.258
9802.000			-13.545			-2.258
9900.000			-13.542			-2.257
10000.000			-13.540			-2.257
10101.000			-13.537			-2.256
10200.000			-13.536			-2.256
10300.000			-13.534			-2.256
10401.000			-13.532			-2.255
10501.000			-13.527			-2.255
10601.000			-13.525			-2.254
10701.000			-13.522			-2.254
10800.000			-13.520			-2.253
10900.000			-13.519			-2.253
11001.000			-13.517			-2.253
11100.000			-13.515			-2.253
11201.000			-13.511			-2.252
11302.000			-13.509			-2.251
11400.000			-13.507			-2.251
11500.000			-13.505			-2.251
11601.000			-13.502			-2.250
11700.000			-13.501			-2.250
11800.000			-13.499			-2.250
11901.000			-13.497			-2.250
12001.000			-13.493			-2.249
12101.000			-13.491			-2.248
12201.000			-13.489			-2.248
12300.000			-13.488			-2.248
12400.000			-13.486			-2.248
12501.000			-13.484			-2.247
12600.000			-13.482			-2.247
12700.000			-13.478			-2.246
12802.000			-13.477			-2.246
12901.000			-13.476			-2.246
13000.000			-13.474			-2.246
13100.000			-13.472			-2.245
13200.000			-13.471			-2.245
13301.000			-13.469			-2.245
13400.000			-13.465			-2.244
13500.000			-13.464			-2.244
13602.000			-13.461			-2.244
13701.000			-13.459			-2.243
13800.000			-13.459			-2.243
13901.000			-13.458			-2.243
14000.000			-13.455			-2.243
14100.000			-13.452			-2.242
14201.000			-13.451			-2.242
14300.000			-13.450			-2.242
14401.000			-13.447			-2.241
14502.000			-13.446			-2.241
14600.000			-13.445			-2.241
14700.000			-13.444			-2.241
14801.000			-13.442			-2.240
14900.000			-13.439			-2.240
15000.000			-13.438			-2.240
15101.000			-13.435			-2.239
15201.000			-13.434			-2.239
15301.000			-13.434			-2.239
15401.000			-13.433			-2.239
15500.000			-13.431			-2.238
15600.000			-13.427			-2.238
15701.000			-13.425			-2.238
15800.000			-13.424			-2.237
15900.000			-13.422			-2.237
16002.000			-13.420			-2.237
16101.000			-13.418			-2.236
16200.000			-13.418			-2.236
16300.000			-13.415			-2.236
16400.000			-13.414			-2.236
16501.000			-13.412			-2.235
16600.000			-13.410			-2.235
16700.000			-13.409			-2.235
16802.000			-13.408			-2.235
16901.000			-13.408			-2.235
17000.000			-13.404			-2.234
17101.000			-13.403			-2.234
17200.000			-13.401			-2.234
17300.000			-13.399			-2.233
17401.000			-13.398			-2.233
17501.000			-13.397			-2.233
17601.000			-13.396			-2.233
17702.000			-13.396			-2.233
17800.000			-13.392			-2.232
17900.000			-13.392			-2.232
18001.000			-13.391			-2.232
18100.000			-13.389			-2.232
18200.000			-13.388			-2.231
18301.000			-13.386			-2.231
18401.000			-13.385			-2.231
18501.000			-13.382			-2.230
18601.000			-13.381			-2.230
18700.000			-13.380			-2.230
18800.000			-13.379			-2.230
18901.000			-13.378			-2.230
19000.000			-13.377			-2.229
19100.000			-13.375			-2.229
19202.000			-13.373			-2.229
19301.000			-13.372			-2.229
19400.000			-13.371			-2.228
19500.000			-13.369			-2.228
19600.000			-13.369			-2.228
19701.000			-13.368			-2.228
19800.000			-13.366			-2.228
19900.000			-13.364			-2.227
20002.000			-13.363			-2.227
20101.000			-13.361			-2.227
20200.000			-13.358			-2.226
20301.000			-13.358			-2.226
20400.000			-13.358			-2.226
20500.000			-13.356			-2.226
20601.000			-13.354			-2.226
20700.000			-13.353			-2.226
20801.000			-13.352			-2.225
20902.000			-13.351			-2.225
21000.000			-13.350			-2.225
21100.000			-13.349			-2.225
21201.000			-13.348			-2.225
21300.000			-13.346			-2.224
21400.000			-13.344			-2.224
21501.000			-13.342			-2.224
21601.000			-13.341			-2.223
21701.000			-13.341			-2.223
21801.000			-13.340			-2.223
21900.000			-13.339			-2.223
22000.000			-13.338			-2.223
22101.000			-13.336			-2.223
22200.000			-13.335			-2.222
22301.000			-13.333			-2.222
22402.000			-13.332			-2.222
22500.000			-13.331			-2.222
22600.000			-13.331			-2.222
22700.000			-13.329			-2.222
22800.000			-13.328			-2.221
22901.000			-13.327			-2.221
23000.000			-13.325			-2.221
23101.000			-13.324			-2.221
23202.000			-13.323			-2.220
23300.000			-13.322			-2.220
23400.000			-13.322			-2.220
23501.000			-13.320			-2.220
23600.000			-13.320			-2.220
23700.000			-13.318			-2.220
23801.000			-13.317			-2.220
23901.000			-13.316			-2.219
24001.000			-13.315			-2.219
24101.000			-13.314			-2.219
24200.000			-13.312			-2.219
24300.000			-13.311			-2.219
24401.000			-13.310			-2.218
24500.000			-13.309			-2.218
24600.000			-13.309			-2.218
24702.000			-13.308			-2.218
24801.000			-13.306			-2.218
24900.000			-13.305			-2.218
25001.000			-13.303			-2.217
25100.000			-13.302			-2.217
25200.000			-13.301			-2.217
25301.000			-13.300			-2.217
25401.000			-13.300			-2.217
25501.000			-13.298			-2.216
25601.000			-13.298			-2.216
25700.000			-13.296			-2.216
25800.000			-13.295			-2.216
25900.000			-13.294			-2.216
26000.000			-13.293			-2.216
26101.000			-13.292			-2.215
26201.000			-13.292			-2.215
26301.000			-13.291			-2.215
26401.000			-13.289			-2.215
26500.000			-13.288			-2.215
26600.000			-13.287			-2.215
26701.000			-13.286			-2.214
26800.000			-13.286			-2.214
26900.000			-13.285			-2.214
27002.000			-13.284			-2.214
27101.000			-13.284			-2.214
27200.000			-13.280			-2.213
27301.000			-13.280			-2.213
27400.000			-13.280			-2.213
27500.000			-13.279			-2.213
27601.000			-13.278			-2.213
27700.000			-13.277			-2.213
27801.000			-13.275			-2.213
27902.000			-13.273			-2.212
28001.000			-13.273			-2.212
28100.000			-13.273			-2.212
28201.000			-13.272			-2.212
28300.000			-13.271			-2.212
28400.000			-13.271			-2.212
28501.000			-13.269			-2.212
28601.000			-13.267			-2.211
28701.000			-13.267			-2.211
28802.000			-13.267			-2.211
28900.000			-13.265			-2.211
29000.000			-13.264			-2.211
29100.000			-13.263			-2.210
29200.000			-13.262			-2.210
29301.000			-13.261			-2.210
29400.000			-13.261			-2.210
29501.000			-13.260			-2.210
29602.000			-13.259			-2.210
29700.000			-13.259			-2.210
29800.000			-13.257			-2.210
29901.000			-13.256			-2.209
30000.000			-13.256			-2.209
30100.000			-13.254			-2.209
30201.000			-13.254			-2.209
30301.000			-13.254			-2.209
30401.000			-13.253			-2.209
30501.000			-13.252			-2.209
30600.000			-13.251			-2.209
30700.000			-13.249			-2.208
30801.000			-13.248			-2.208
30900.000			-13.247			-2.208
31001.000			-13.246			-2.208
31102.000			-13.246			-2.208
31200.000			-13.246			-2.208
31300.000			-13.244			-2.207
31401.000			-13.243			-2.207
31500.000			-13.244			-2.207
31600.000			-13.242			-2.207
31701.000			-13.240			-2.207
31801.000			-13.240			-2.207
31901.000			-13.239			-2.206
32001.000			-13.238			-2.206
32100.000			-13.238			-2.206
32200.000			-13.235			-2.206
32300.000			-13.235			-2.206
32400.000			-13.234			-2.206
32501.000			-13.233			-2.206
32601.000			-13.233			-2.205
32701.000			-13.231			-2.205
32801.000			-13.231			-2.205
32900.000			-13.230			-2.205
33000.000			-13.229			-2.205
33101.000			-13.229			-2.205
33200.000			-13.227			-2.205
33300.000			-13.227			-2.205
33402.000			-13.227			-2.204
33501.000			-13.226			-2.204
33600.000			-13.226			-2.204
33701.000			-13.225			-2.204
33800.000			-13.223			-2.204
33900.000			-13.223			-2.204
34001.000			-13.222			-2.204
34101.000			-13.221			-2.203
34201.000			-13.220			-2.203
34301.000			-13.219			-2.203
34400.000			-13.218			-2.203
34500.000			-13.217			-2.203
34601.000			-13.218			-2.203
34700.000			-13.217			-2.203
34800.000			-13.216			-2.203
34902.000			-13.215			-2.203
35001.000			-13.215			-2.203
35100.000			-13.213			-2.202
35201.000			-13.211			-2.202
35300.000			-13.211			-2.202
35400.000			-13.210			-2.202
35500.000			-13.209			-2.202
35600.000			-13.208			-2.201
35702.000			-13.209			-2.201
35801.000			-13.208			-2.201
35900.000			-13.207			-2.201
36001.000			-13.207			-2.201
36100.000			-13.206			-2.201
36200.000			-13.204			-2.201
36301.000			-13.204			-2.201
36400.000			-13.204			-2.201
36501.000			-13.203			-2.200
36602.000			-13.201			-2.200
36700.000			-13.201			-2.200
36800.000			-13.200			-2.200
36901.000			-13.200			-2.200
37000.000			-13.199			-2.200
37100.000			-13.199			-2.200
37201.000			-13.199			-2.200
37301.000			-13.198			-2.200
37401.000			-13.196			-2.199
37501.000			-13.195			-2.199
37600.000			-13.194			-2.199
37700.000			-13.194			-2.199
37801.000			-13.195			-2.199
37900.000			-13.194			-2.199
38000.000			-13.192			-2.199
38102.000			-13.192			-2.199
38201.000			-13.192			-2.199
38300.000			-13.191			-2.198
38401.000			-13.190			-2.198
38500.000			-13.189			-2.198
38600.000			-13.189			-2.198
38700.000			-13.187			-2.198
38800.000			-13.186			-2.198
38902.000			-13.185			-2.197
39001.000			-13.184			-2.197
39100.000			-13.183			-2.197
39201.000			-13.183			-2.197
39300.000			-13.184			-2.197
39400.000			-13.182			-2.197
39501.000			-13.181			-2.197
39600.000			-13.180			-2.197
39701.000			-13.180			-2.197
39802.000			-13.179			-2.196
39900.000			-13.179			-2.196
40000.000			-13.178			-2.196
40101.000			-13.177			-2.196
40200.000			-13.177			-2.196
40300.000			-13.176			-2.196
40401.000			-13.175			-2.196
40501.000			-13.174			-2.196
40601.000			-13.174			-2.196
40701.000			-13.174			-2.196
40800.000			-13.173			-2.196
40900.000			-13.171			-2.195
41001.000			-13.171			-2.195
41100.000			-13.171			-2.195
41201.000			-13.169			-2.195
41302.000			-13.168			-2.195
41401.000			-13.169			-2.195
41500.000			-13.169			-2.195
41601.000			-13.167			-2.195
41700.000			-13.167			-2.195
41800.000			-13.166			-2.194
41900.000			-13.165			-2.194
42001.000			-13.165			-2.194
42102.000			-13.164			-2.194
42200.000			-13.164			-2.194
42300.000			-13.164			-2.194
42401.000			-13.163			-2.194
42500.000			-13.162			-2.194
42600.000			-13.161			-2.193
42701.000			-13.160			-2.193
42801.000			-13.160			-2.193
42901.000			-13.159			-2.193
43001.000			-13.158			-2.193
43100.000			-13.157			-2.193
43200.000			-13.156			-2.193
43301.000			-13.156			-2.193
43400.000			-13.156			-2.193
43500.000			-13.156			-2.193
43602.000			-13.155			-2.193
43701.000			-13.154			-2.192
43800.000			-13.154			-2.192
43901.000			-13.153			-2.192
44000.000			-13.152			-2.192
44100.000			-13.152			-2.192
44201.000			-13.151			-2.192
44301.000			-13.150			-2.192
44401.000			-13.151			-2.192
44501.000			-13.148			-2.191
44600.000			-13.148			-2.191
44700.000			-13.148			-2.191
44801.000			-13.147			-2.191
44900.000			-13.145			-2.191
45000.000			-13.146			-2.191
45102.000			-13.146			-2.191
45201.000			-13.145			-2.191
45302.000			-13.144			-2.191
45400.000			-13.143			-2.190
45500.000			-13.143			-2.190
45601.000			-13.142			-2.190
45700.000			-13.142			-2.190
45800.000			-13.142			-2.190
45902.000			-13.140			-2.190
46001.000			-13.139			-2.190
46100.000			-13.141			-2.190
46201.000			-13.139			-2.190
46300.000			-13.137			-2.190
46400.000			-13.137			-2.190
46501.000			-13.138			-2.190
46600.000			-13.137			-2.190
46701.000			-13.136			-2.189
46802.000			-13.135			-2.189
46900.000			-13.134			-2.189
47000.000			-13.133			-2.189
47101.000			-13.133			-2.189
47200.000			-13.134			-2.189
47300.000			-13.132			-2.189
47401.000			-13.131			-2.188
47501.000			-13.130			-2.188
47601.000			-13.130			-2.188
47701.000			-13.129			-2.188
47800.000			-13.128			-2.188
47900.000			-13.128			-2.188
48001.000			-13.129			-2.188
48100.000			-13.127			-2.188
48200.000			-13.126			-2.188
48302.000			-13.126			-2.188
48401.000			-13.127			-2.188
48501.000			-13.125			-2.188
48600.000			-13.125			-2.187
48700.000			-13.124			-2.187
48801.000			-13.124			-2.187
48900.000			-13.123			-2.187
49000.000			-13.121			-2.187
49102.000			-13.120			-2.187
49201.000			-13.120			-2.187
49300.000			-13.120			-2.187
49401.000			-13.121			-2.187
49500.000			-13.119			-2.187
49600.000			-13.119			-2.187
49701.000			-13.118			-2.186
49800.000			-13.117			-2.186
49901.000			-13.117			-2.186
50002.000			-13.118			-2.186
50100.000			-13.118			-2.186
50200.000			-13.117			-2.186
50301.000			-13.115			-2.186
50400.000			-13.114			-2.186
50500.000			-13.114			-2.186
50602.000			-13.113			-2.186
50701.000			-13.113			-2.185
50800.000			-13.113			-2.185
50901.000			-13.113			-2.185
51000.000			-13.111			-2.185
51100.000			-13.110			-2.185
51201.000			-13.110			-2.185
51300.000			-13.110			-2.185
51402.000			-13.110			-2.185
51501.000			-13.109			-2.185
51600.000			-13.108			-2.185
51701.000			-13.107			-2.185
51800.000			-13.106			-2.184
51900.000			-13.107			-2.184
52001.000			-13.106			-2.184
52100.000			-13.106			-2.184
52201.000			-13.105			-2.184
52302.000			-13.104			-2.184
52400.000			-13.104			-2.184
52500.000			-13.103			-2.184
52601.000			-13.103			-2.184
52700.000			-13.102			-2.184
52800.000			-13.101			-2.183
52901.000			-13.100			-2.183
53001.000			-13.101			-2.183
53101.000			-13.100			-2.183
53201.000			-13.099			-2.183
53300.000			-13.099			-2.183
53400.000			-13.098			-2.183
53501.000			-13.098			-2.183
53600.000			-13.097			-2.183
53701.000			-13.097			-2.183
53802.000			-13.098			-2.183
53900.000			-13.096			-2.183
54000.000			-13.094			-2.182
54101.000			-13.094			-2.182
54200.000			-13.095			-2.182
54300.000			-13.094			-2.182
54401.000			-13.094			-2.182
54501.000			-13.094			-2.182
54602.000			-13.092			-2.182
54701.000			-13.091			-2.182
54800.000			-13.091			-2.182
54901.000			-13.090			-2.182
55000.000			-13.090			-2.182
55100.000			-13.090			-2.182
55201.000			-13.089			-2.182
55301.000			-13.089			-2.182
55401.000			-13.089			-2.181
55502.000			-13.088			-2.181
55600.000			-13.088			-2.181
55700.000			-13.087			-2.181
55801.000			-13.087			-2.181
55900.000			-13.085			-2.181
56000.000			-13.085			-2.181
56101.000			-13.085			-2.181
56201.000			-13.084			-2.181
56301.000			-13.083			-2.181
56401.000			-13.084			-2.181
56500.000			-13.083			-2.181
56600.000			-13.081			-2.180
56701.000			-13.081			-2.180
56800.000			-13.081			-2.180
56901.000			-13.080			-2.180
57002.000			-13.080			-2.180
57100.000			-13.080			-2.180
57200.000			-13.079			-2.180
57301.000			-13.079			-2.180
57400.000			-13.078			-2.180
57500.000			-13.077			-2.179
57601.000			-13.076			-2.179
57701.000			-13.076			-2.179
57802.000			-13.077			-2.179
57901.000			-13.076			-2.179
58000.000			-13.075			-2.179
58101.000			-13.075			-2.179
58200.000			-13.074			-2.179
58300.000			-13.074			-2.179
58401.000			-13.073			-2.179
58501.000			-13.073			-2.179
58601.000			-13.072			-2.179
58702.000			-13.071			-2.178
58800.000			-13.071			-2.179
58900.000			-13.072			-2.179
59001.000			-13.071			-2.178
59100.000			-13.070			-2.178
59200.000			-13.070			-2.178
59301.000			-13.070			-2.178
59401.000			-13.069			-2.178
59501.000			-13.068			-2.178
59601.000			-13.068			-2.178
59700.000			-13.067			-2.178
59800.000			-13.067			-2.178
59901.000			-13.067			-2.178
60000.000			-13.066			-2.178
60100.000			-13.066			-2.178
60202.000			-13.066			-2.178
60301.000			-13.065			-2.177
60400.000			-13.064			-2.177
60501.000			-13.064			-2.177
60600.000			-13.064			-2.177
60700.000			-13.062			-2.177
60801.000			-13.062			-2.177
60901.000			-13.062			-2.177
61002.000			-13.062			-2.177
61100.000			-13.061			-2.177
61200.000			-13.061			-2.177
61301.000			-13.060			-2.177
61400.000			-13.059			-2.177
61500.000			-13.059			-2.176
61601.000			-13.059			-2.177
61701.000			-13.058			-2.176
61801.000			-13.058			-2.176
61901.000			-13.058			-2.176
62000.000			-13.057			-2.176
62100.000			-13.056			-2.176
62201.000			-13.056			-2.176
62300.000			-13.055			-2.176
62400.000			-13.056			-2.176
62502.000			-13.055			-2.176
62601.000			-13.053			-2.176
62700.000			-13.054			-2.176
62801.000			-13.054			-2.176
62900.000			-13.053			-2.176
63000.000			-13.054			-2.176
63101.000			-13.053			-2.176
63200.000			-13.053			-2.175
63301.000			-13.051			-2.175
63402.000			-13.050			-2.175
63500.000			-13.049			-2.175
63600.000			-13.048			-2.175
63701.000			-13.050			-2.175
63800.000			-13.050			-2.175
63900.000			-13.048			-2.175
64001.000			-13.049			-2.175
64101.000			-13.048			-2.175
64202.000			-13.047			-2.175
64300.000			-13.047			-2.174
64400.000			-13.047			-2.174
64501.000			-13.046			-2.174
64600.000			-13.046			-2.174
64700.000			-13.046			-2.174
64801.000			-13.044			-2.174
64901.000			-13.044			-2.174
65001.000			-13.044			-2.174
65101.000			-13.044			-2.174
65200.000			-13.043			-2.174
65300.000			-13.042			-2.174
65401.000			-13.043			-2.174
65500.000			-13.043			-2.174
65600.000			-13.042			-2.174
65702.000			-13.039			-2.173
65801.000			-13.040			-2.173
65900.000			-13.040			-2.173
66001.000			-13.040			-2.173
66100.000			-13.040			-2.173
66200.000			-13.039			-2.173
66301.000			-13.038			-2.173
66401.000			-13.038			-2.173
66501.000			-13.039			-2.173
66602.000			-13.038			-2.173
66700.000			-13.037			-2.173
66800.000			-13.036			-2.173
66901.000			-13.036			-2.173
67000.000			-13.035			-2.173
67100.000			-13.035			-2.173
67201.000			-13.035			-2.172
67301.000			-13.035			-2.172
67402.000			-13.034			-2.172
67500.000			-13.034			-2.172
67600.000			-13.033			-2.172
67701.000			-13.033			-2.172
67800.000			-13.033			-2.172
67900.000			-13.032			-2.172
68001.000			-13.031			-2.172
68101.000			-13.031			-2.172
68201.000			-13.030			-2.172
68301.000			-13.031			-2.172
68400.000			-13.029			-2.171
68500.000			-13.028			-2.171
68601.000			-13.028			-2.171
68700.000			-13.027			-2.171
68800.000			-13.028			-2.171
68902.000			-13.028			-2.171
69001.000			-13.027			-2.171
69100.000			-13.026			-2.171
69201.000			-13.026			-2.171
69300.000			-13.026			-2.171
69400.000			-13.026			-2.171
69501.000			-13.025			-2.171
69600.000			-13.024			-2.171
69701.000			-13.024			-2.171
69802.000			-13.023			-2.170
69900.000			-13.023			-2.170
70000.000			-13.023			-2.170
70101.000			-13.023			-2.170
70200.000			-13.022			-2.170
70300.000			-13.022			-2.170
70401.000			-13.022			-2.170
70501.000			-13.021			-2.170
70602.000			-13.021			-2.170
70700.000			-13.020			-2.170
70800.000			-13.019			-2.170
70901.000			-13.019			-2.170
71000.000			-13.019			-2.170
71100.000			-13.019			-2.170
71201.000			-13.018			-2.170
71301.000			-13.018			-2.170
71401.000			-13.018			-2.170
71501.000			-13.018			-2.170
71600.000			-13.018			-2.170
71700.000			-13.018			-2.170
71801.000			-13.017			-2.170
71900.000			-13.017			-2.169
72001.000			-13.016			-2.169
72102.000			-13.015			-2.169
72201.000			-13.016			-2.169
72300.000			-13.015			-2.169
72401.000			-13.015			-2.169
72500.000			-13.015			-2.169
72600.000			-13.013			-2.169
72701.000			-13.013			-2.169
72801.000			-13.013			-2.169
72901.000			-13.012			-2.169
73001.000			-13.011			-2.169
73100.000			-13.012			-2.169
73200.000			-13.011			-2.168
73301.000			-13.009			-2.168
73400.000			-13.010			-2.168
73500.000			-13.009			-2.168
73602.000			-13.009			-2.168
73701.000			-13.010			-2.168
73800.000			-13.010			-2.168
73900.000			-13.008			-2.168
74000.000			-13.008			-2.168
74101.000			-13.007			-2.168
74200.000			-13.007			-2.168
74300.000			-13.006			-2.168
74402.000			-13.006			-2.168
74501.000			-13.007			-2.168
74601.000			-13.007			-2.168
74701.000			-13.006			-2.168
74800.000			-13.005			-2.168
74900.000			-13.004			-2.167
75001.000			-13.004			-2.167
75100.000			-13.004			-2.167
75201.000			-13.003			-2.167
75302.000			-13.003			-2.167
75400.000			-13.002			-2.167
75500.000			-13.002			-2.167
75601.000			-13.002			-2.167
75700.000			-13.002			-2.167
75800.000			-13.001			-2.167
75901.000			-13.000			-2.167
76001.000			-13.001			-2.167
76101.000			-13.001			-2.167
76201.000			-13.000			-2.167
76300.000			-12.999			-2.167
76400.000			-13.000			-2.167
76501.000			-12.999			-2.166
76600.000			-12.999			-2.166
76700.000			-12.998			-2.166
76802.000			-12.998			-2.166
76901.000			-12.997			-2.166
77002.000			-12.997			-2.166
77100.000			-12.997			-2.166
77200.000			-12.997			-2.166
77301.000			-12.996			-2.166
77400.000			-12.995			-2.166
77500.000			-12.995			-2.166
77601.000			-12.995			-2.166
77701.000			-12.994			-2.166
77801.000			-12.994			-2.166
77901.000			-12.993			-2.166
78000.000			-12.993			-2.166
78100.000			-12.993			-2.166
78201.000			-12.992			-2.165
78300.000			-12.992			-2.165
78400.000			-12.991			-2.165
78502.000			-12.991			-2.165
78601.000			-12.991			-2.165
78701.000			-12.990			-2.165
78801.000			-12.990			-2.165
78900.000			-12.990			-2.165
79000.000			-12.990			-2.165
79101.000			-12.989			-2.165
79200.000			-12.989			-2.165
79300.000			-12.989			-2.165
79402.000			-12.988			-2.165
79501.000			-12.987			-2.165
79600.000			-12.988			-2.165
79701.000			-12.988			-2.165
79800.000			-12.988			-2.165
79900.000			-12.987			-2.165
80001.000			-12.987			-2.164
80100.000			-12.986			-2.164
80200.000			-12.986			-2.164
80302.000			-12.985			-2.164
80401.000			-12.985			-2.164
80501.000			-12.984			-2.164
80600.000			-12.985			-2.164
80700.000			-12.985			-2.164
80801.000			-12.985			-2.164
80900.000			-12.984			-2.164
81000.000			-12.983			-2.164
81102.000			-12.982			-2.164
81201.000			-12.982			-2.164
81300.000			-12.982			-2.164
81401.000			-12.983			-2.164
81500.000			-12.981			-2.164
81600.000			-12.981			-2.163
81701.000			-12.980			-2.163
81800.000			-12.980			-2.163
81900.000			-12.980			-2.163
82002.000			-12.980			-2.163
82101.000			-12.978			-2.163
82200.000			-12.979			-2.163
82301.000			-12.978			-2.163
82400.000			-12.977			-2.163
82500.000			-12.978			-2.163
82601.000			-12.978			-2.163
82700.000			-12.978			-2.163
82801.000			-12.976			-2.163
82902.000			-12.976			-2.163
83001.000			-12.976			-2.163
83100.000			-12.977			-2.163
83201.000			-12.977			-2.163
83300.000			-12.976			-2.163
83400.000			-12.975			-2.163
83500.000			-12.974			-2.162
83600.000			-12.974			-2.162
83702.000			-12.974			-2.162
83801.000			-12.973			-2.162
83900.000			-12.973			-2.162
84001.000			-12.972			-2.162
84100.000			-12.972			-2.162
84200.000			-12.972			-2.162
84301.000			-12.971			-2.162
84400.000			-12.971			-2.162
84501.000			-12.971			-2.162
84602.000			-12.971			-2.162
84700.000			-12.971			-2.162
84800.000			-12.970			-2.162
84901.000			-12.970			-2.162
85000.000			-12.970			-2.162
85100.000			-12.969			-2.162
85201.000			-12.969			-2.162
85301.000			-12.969			-2.161
85401.000			-12.968			-2.161
85502.000			-12.968			-2.161
85600.000			-12.967			-2.161
85700.000			-12.968			-2.161
85801.000			-12.967			-2.161
85900.000			-12.968			-2.161
86000.000			-12.967			-2.161
86101.000			-12.966			-2.161
86201.000			-12.965			-2.161
86301.000			-12.965			-2.161
86401.000			-12.965			-2.161
86500.000			-12.964			-2.161
86600.000			-12.964			-2.161
86700.000			-12.963			-2.161
86800.000			-12.963			-2.160
86901.000			-12.964			-2.161
87000.000			-12.964			-2.161
87101.000			-12.962			-2.160
87202.000			-12.961			-2.160
87300.000			-12.962			-2.160
87400.000			-12.962			-2.160
87501.000			-12.961			-2.160
87600.000			-12.961			-2.160
87700.000			-12.961			-2.160
87801.000			-12.961			-2.160
87901.000			-12.960			-2.160
88001.000			-12.958			-2.160
88101.000			-12.958			-2.160
88200.000			-12.958			-2.160
88300.000			-12.958			-2.160
88401.000			-12.958			-2.160
88500.000			-12.958			-2.160
88600.000			-12.958			-2.160
88701.000			-12.957			-2.160
88801.000			-12.957			-2.159
88901.000			-12.956			-2.159
89001.000			-12.956			-2.159
89100.000			-12.956			-2.159
89200.000			-12.956			-2.159
89301.000			-12.955			-2.159
89400.000			-12.955			-2.159
89500.000			-12.955			-2.159
89601.000			-12.955			-2.159
89701.000			-12.955			-2.159
89802.000			-12.954			-2.159
89900.000			-12.954			-2.159
90000.000			-12.953			-2.159
90101.000			-12.953			-2.159
90200.000			-12.952			-2.159
90300.000			-12.951			-2.159
90401.000			-12.952			-2.159
90501.000			-12.951			-2.158
90601.000			-12.951			-2.158
90701.000			-12.950			-2.158
90800.000			-12.951			-2.158
90900.000			-12.950			-2.158
91001.000			-12.950			-2.158
91100.000			-12.950			-2.158
91200.000			-12.949			-2.158
91302.000			-12.949			-2.158
91401.000			-12.949			-2.158
91500.000			-12.947			-2.158
91601.000			-12.947			-2.158
91700.000			-12.947			-2.158
91800.000			-12.947			-2.158
91901.000			-12.948			-2.158
92000.000			-12.947			-2.158
92100.000			-12.946			-2.158
92202.000			-12.946			-2.158
92301.000			-12.945			-2.157
92400.000			-12.944			-2.157
92501.000			-12.945			-2.158
92600.000			-12.945			-2.157
92700.000			-12.944			-2.157
92801.000			-12.944			-2.157
92900.000			-12.944			-2.157
93002.000			-12.944			-2.157
93101.000			-12.944			-2.157
93200.000			-12.943			-2.157
93301.000			-12.942			-2.157
93400.000			-12.942			-2.157
93500.000			-12.942			-2.157
93601.000			-12.942			-2.157
93700.000			-12.941			-2.157
93801.000			-12.940			-2.157
93902.000			-12.940			-2.157
94000.000			-12.939			-2.157
94100.000			-12.940			-2.157
94201.000			-12.941			-2.157
94300.000			-12.940			-2.157
94400.000			-12.939			-2.156
94501.000			-12.938			-2.156
94601.000			-12.939			-2.156
94701.000			-12.938			-2.156
94801.000			-12.938			-2.156
94900.000			-12.937			-2.156
95000.000			-12.938			-2.156
95101.000			-12.937			-2.156
95200.000			-12.936			-2.156
95300.000			-12.936			-2.156
95401.000			-12.936			-2.156
95501.000			-12.936			-2.156
95601.000			-12.936			-2.156
95701.000			-12.935			-2.156
95800.000			-12.935			-2.156
95900.000			-12.935			-2.156
96001.000			-12.935			-2.156
96100.000			-12.935			-2.156
96200.000			-12.934			-2.156
96302.000			-12.934			-2.156
96401.000			-12.934			-2.156
96501.000			-12.933			-2.155
96600.000			-12.932			-2.155
96700.000			-12.932			-2.155
96801.000			-12.933			-2.155
96900.000			-12.932			-2.155
97000.000			-12.931			-2.155
97101.000			-12.931			-2.155
97201.000			-12.931			-2.155
97301.000			-12.931			-2.155
97401.000			-12.930			-2.155
97500.000			-12.930			-2.155
97600.000			-12.930			-2.155
97701.000			-12.930			-2.155
97800.000			-12.930			-2.155
97900.000			-12.929			-2.155
98002.000			-12.928			-2.155
98101.000			-12.928			-2.155
98200.000			-12.928			-2.155
98301.000			-12.927			-2.155
98400.000			-12.926			-2.154
98500.000			-12.927			-2.154
98601.000			-12.927			-2.154
98700.000			-12.927			-2.155
98800.000			-12.926			-2.154
98902.000			-12.926			-2.154
99001.000			-12.926			-2.154
99100.000			-12.925			-2.154
99201.000			-12.925			-2.154
99300.000			-12.925			-2.154
99400.000			-12.924			-2.154
99500.000			-12.924			-2.154
99600.000			-12.924			-2.154
99702.000			-12.924			-2.154
99801.000			-12.923			-2.154
99900.000			-12.923			-2.154
100001.000			-12.924			-2.154
100100.000			-12.924			-2.154
100200.000			-12.922			-2.154
100301.000			-12.922			-2.154
100400.000			-12.921			-2.153
100501.000			-12.921			-2.153
100602.000			-12.921			-2.154
100700.000			-12.920			-2.153
100800.000			-12.920			-2.153
100901.000			-12.920			-2.153
101000.000			-12.920			-2.153
101100.000			-12.920			-2.153
101201.000			-12.919			-2.153
101301.000			-12.919			-2.153
101401.000			-12.918			-2.153
101501.000			-12.918			-2.153
101600.000			-12.918			-2.153
101700.000			-12.918			-2.153
101801.000			-12.918			-2.153
101900.000			-12.917			-2.153
102000.000			-12.916			-2.153
102101.000			-12.916			-2.153
102201.000			-12.916			-2.153
102301.000			-12.916			-2.153
102401.000			-12.916			-2.153
102500.000			-12.915			-2.153
102600.000			-12.916			-2.153
102700.000			-12.915			-2.153
102800.000			-12.915			-2.153
102901.000			-12.915			-2.153
103001.000			-12.914			-2.152
103101.000			-12.914			-2.152
103201.000			-12.914			-2.152
103300.000			-12.914			-2.152
103400.000			-12.914			-2.152
103501.000			-12.913			-2.152
103600.000			-12.913			-2.152
103700.000			-12.913			-2.152
103802.000			-12.912			-2.152
103901.000			-12.913			-2.152
104001.000			-12.913			-2.152
104101.000			-12.912			-2.152
104200.000			-12.911			-2.152
104300.000			-12.911			-2.152
104401.000			-12.911			-2.152
104500.000			-12.911			-2.152
104600.000			-12.910			-2.152
104702.000			-12.910			-2.152
104801.000			-12.910			-2.152
104900.000			-12.910			-2.152
105001.000			-12.909			-2.152
105100.000			-12.909			-2.151
105200.000			-12.910			-2.152
105301.000			-12.909			-2.151
105400.000			-12.908			-2.151
105501.000			-12.909			-2.151
105602.000			-12.908			-2.151
105700.000			-12.906			-2.151
105800.000			-12.907			-2.151
105900.000			-12.907			-2.151
106000.000			-12.907			-2.151
106101.000			-12.906			-2.151
106200.000			-12.905			-2.151
106301.000			-12.906			-2.151
106402.000			-12.906			-2.151
106501.000			-12.904			-2.151
106600.000			-12.904			-2.151
106701.000			-12.903			-2.151
106800.000			-12.904			-2.151
106900.000			-12.904			-2.151
107001.000			-12.904			-2.151
107100.000			-12.904			-2.151
107201.000			-12.903			-2.150
107302.000			-12.902			-2.150
107400.000			-12.902			-2.150
107500.000			-12.902			-2.150
107601.000			-12.902			-2.150
107700.000			-12.902			-2.150
107800.000			-12.901			-2.150
107901.000			-12.901			-2.150
108001.000			-12.902			-2.150
108101.000			-12.901			-2.150
108201.000			-12.900			-2.150
108300.000			-12.900			-2.150
108400.000			-12.899			-2.150
108501.000			-12.900			-2.150
108600.000			-12.900			-2.150
108700.000			-12.899			-2.150
108801.000			-12.899			-2.150
108901.000			-12.899			-2.150
109002.000			-12.899			-2.150
109100.000			-12.898			-2.150
109200.000			-12.897			-2.150
109301.000			-12.897			-2.150
109400.000			-12.897			-2.150
109500.000			-12.898			-2.150
109601.000			-12.898			-2.150
109700.000			-12.898			-2.150
109801.000			-12.898			-2.150
109902.000			-12.897			-2.150
110000.000			-12.896			-2.149
110100.000			-12.896			-2.149
110201.000			-12.896			-2.149
110300.000			-12.896			-2.149
110400.000			-12.895			-2.149
110501.000			-12.895			-2.149
110601.000			-12.895			-2.149
110701.000			-12.893			-2.149
110801.000			-12.894			-2.149
110900.000			-12.894			-2.149
111000.000			-12.894			-2.149
111101.000			-12.894			-2.149
111200.000			-12.893			-2.149
111300.000			-12.893			-2.149
111401.000			-12.893			-2.149
111501.000			-12.893			-2.149
111601.000			-12.893			-2.149
111701.000			-12.893			-2.149
111800.000			-12.893			-2.149
111900.000			-12.893			-2.149
112001.000			-12.892			-2.149
112100.000			-12.892			-2.149
112200.000			-12.892			-2.149
112302.000			-12.891			-2.149
112401.000			-12.891			-2.148
112502.000			-12.890			-2.148
112600.000			-12.890			-2.148
112700.000			-12.890			-2.148
112801.000			-12.891			-2.148
112900.000			-12.890			-2.148
113000.000			-12.889			-2.148
113101.000			-12.889			-2.148
113201.000			-12.887			-2.148
113301.000			-12.888			-2.148
113401.000			-12.888			-2.148
113500.000			-12.888			-2.148
113600.000			-12.889			-2.148
113701.000			-12.888			-2.148
113800.000			-12.888			-2.148
113900.000			-12.888			-2.148
114001.000			-12.887			-2.148
114101.000			-12.887			-2.148
114201.000			-12.887			-2.148
114301.000			-12.887			-2.148
114400.000			-12.887			-2.148
114500.000			-12.887			-2.148
114601.000			-12.886			-2.148
114700.000			-12.885			-2.148
114800.000			-12.885			-2.148
114902.000			-12.885			-2.147
115001.000			-12.884			-2.147
115101.000			-12.884			-2.147
115201.000			-12.883			-2.147
115300.000			-12.884			-2.147
115400.000			-12.883			-2.147
115500.000			-12.883			-2.147
115600.000			-12.882			-2.147
115701.000			-12.883			-2.147
115801.000			-12.883			-2.147
115901.000			-12.883			-2.147
116001.000			-12.883			-2.147
116100.000			-12.882			-2.147
116200.000			-12.881			-2.147
116301.000			-12.882			-2.147
116400.000			-12.881			-2.147
116500.000			-12.880			-2.147
116602.000			-12.881			-2.147
116701.000			-12.882			-2.147
116801.000			-12.879			-2.147
116901.000			-12.880			-2.147
117000.000			-12.880			-2.147
117100.000			-12.880			-2.147
117201.000			-12.880			-2.147
117300.000			-12.878			-2.146
117400.000			-12.878			-2.146
117502.000			-12.878			-2.146
117601.000			-12.877			-2.146
117701.000			-12.879			-2.146
117801.000			-12.878			-2.146
117900.000			-12.878			-2.146
118000.000			-12.877			-2.146
118101.000			-12.877			-2.146
118200.000			-12.877			-2.146
118300.000			-12.877			-2.146
118402.000			-12.877			-2.146
118501.000			-12.876			-2.146
118602.000			-12.876			-2.146
118700.000			-12.875			-2.146
118800.000			-12.876			-2.146
118901.000			-12.875			-2.146
119000.000			-12.873			-2.146
119100.000			-12.873			-2.145
119201.000			-12.873			-2.146
119301.000			-12.873			-2.146
119401.000			-12.873			-2.146
119501.000			-12.873			-2.146
119600.000			-12.874			-2.146
119700.000			-12.872			-2.145
119801.000			-12.871			-2.145
119900.000			-12.871			-2.145
120000.000			-12.871			-2.145
120101.000			-12.871			-2.145
120201.000			-12.871			-2.145
120301.000			-12.872			-2.145
120401.000			-12.872			-2.145
120500.000			-12.871			-2.145
120600.000			-12.870			-2.145
120701.000			-12.870			-2.145
120800.000			-12.870			-2.145
120900.000			-12.870			-2.145
121002.000			-12.870			-2.145
121101.000			-12.870			-2.145
121200.000			-12.870			-2.145
121301.000			-12.869			-2.145
121400.000			-12.869			-2.145
121500.000			-12.868			-2.145
121601.000			-12.868			-2.145
121700.000			-12.868			-2.145
121800.000			-12.867			-2.145
121902.000			-12.867			-2.145
122001.000			-12.866			-2.144
122101.000			-12.866			-2.144
122200.000			-12.866			-2.144
122300.000			-12.866			-2.144
122401.000			-12.866			-2.144
122500.000			-12.866			-2.144
122600.000			-12.865			-2.144
122702.000			-12.865			-2.144
122801.000			-12.866			-2.144
122900.000			-12.865			-2.144
123001.000			-12.865			-2.144
123100.000			-12.865			-2.144
123200.000			-12.865			-2.144
123301.000			-12.865			-2.144
123400.000			-12.864			-2.144
123500.000			-12.865			-2.144
123602.000			-12.863			-2.144
123701.000			-12.864			-2.144
123800.000			-12.864			-2.144
123901.000			-12.863			-2.144
124000.000			-12.863			-2.144
124100.000			-12.862			-2.144
124201.000			-12.862			-2.144
124300.000			-12.862			-2.144
124400.000			-12.862			-2.144
124502.000			-12.861			-2.144
124601.000			-12.861			-2.143
124700.000			-12.862			-2.144
124801.000			-12.859			-2.143
124900.000			-12.859			-2.143
125000.000			-12.860			-2.143
125100.000			-12.859			-2.143
125200.000			-12.859			-2.143
125302.000			-12.858			-2.143
125401.000			-12.859			-2.143
125500.000			-12.859			-2.143
125601.000			-12.858			-2.143
125700.000			-12.857			-2.143
125800.000			-12.857			-2.143
125901.000			-12.857			-2.143
126000.000			-12.858			-2.143
126100.000			-12.857			-2.143
126202.000			-12.858			-2.143
126301.000			-12.858			-2.143
126401.000			-12.857			-2.143
126501.000			-12.856			-2.143
126600.000			-12.856			-2.143
126700.000			-12.857			-2.143
126801.000			-12.857			-2.143
126900.000			-12.856			-2.143
127000.000			-12.856			-2.143
127102.000			-12.855			-2.142
127201.000			-12.854			-2.142
127300.000			-12.855			-2.142
127401.000			-12.854			-2.142
127500.000			-12.854			-2.142
127600.000			-12.854			-2.142
127701.000			-12.854			-2.142
127800.000			-12.853			-2.142
127900.000			-12.852			-2.142
128002.000			-12.853			-2.142
128101.000			-12.853			-2.142
128200.000			-12.852			-2.142
128300.000			-12.852			-2.142
128400.000			-12.853			-2.142
128501.000			-12.852			-2.142
128600.000			-12.851			-2.142
128700.000			-12.850			-2.142
128801.000			-12.851			-2.142
128901.000			-12.850			-2.142
129001.000			-12.851			-2.142
129101.000			-12.850			-2.142
129200.000			-12.850			-2.142
129300.000			-12.849			-2.142
129401.000			-12.849			-2.141
129500.000			-12.849			-2.141
129600.000			-12.849			-2.141
129701.000			-12.849			-2.141
129801.000			-12.848			-2.141
129901.000			-12.850			-2.142
130001.000			-12.850			-2.142
130100.000			-12.849			-2.141
130200.000			-12.848			-2.141
130301.000			-12.847			-2.141
130400.000			-12.847			-2.141
130500.000			-12.846			-2.141
130602.000			-12.847			-2.141
130701.000			-12.847			-2.141
130801.000			-12.846			-2.141
130901.000			-12.846			-2.141
131000.000			-12.846			-2.141
131100.000			-12.846			-2.141
131201.000			-12.845			-2.141
131300.000			-12.846			-2.141
131400.000			-12.847			-2.141
131502.000			-12.846			-2.141
131601.000			-12.845			-2.141
131702.000			-12.844			-2.141
131800.000			-12.844			-2.141
131900.000			-12.845			-2.141
132001.000			-12.845			-2.141
132100.000			-12.844			-2.141
132200.000			-12.844			-2.141
132301.000			-12.844			-2.141
132401.000			-12.844			-2.141
132501.000			-12.844			-2.141
132602.000			-12.844			-2.141
132700.000			-12.843			-2.141
132800.000			-12.843			-2.141
132901.000			-12.844			-2.141
133000.000			-12.843			-2.141
133100.000			-12.842			-2.140
133201.000			-12.842			-2.140
133300.000			-12.842			-2.140
133401.000			-12.841			-2.140
133502.000			-12.841			-2.140
133600.000			-12.841			-2.140
133700.000			-12.841			-2.140
133801.000			-12.841			-2.140
133900.000			-12.840			-2.140
134000.000			-12.840			-2.140
134101.000			-12.840			-2.140
134200.000			-12.840			-2.140
134301.000			-12.840			-2.140
134402.000			-12.838			-2.140
134500.000			-12.839			-2.140
134600.000			-12.840			-2.140
134700.000			-12.840			-2.140
134800.000			-12.840			-2.140
134901.000			-12.838			-2.140
135000.000			-12.838			-2.140
135100.000			-12.838			-2.140
135201.000			-12.839			-2.140
135301.000			-12.838			-2.140
135401.000			-12.838			-2.140
135501.000			-12.838			-2.140
135600.000			-12.837			-2.140
135700.000			-12.836			-2.139
135801.000			-12.836			-2.139
135900.000			-12.837			-2.139
136000.000			-12.836			-2.139
136101.000			-12.836			-2.139
136201.000			-12.836			-2.139
136301.000			-12.835			-2.139
136401.000			-12.835			-2.139
136500.000			-12.836			-2.139
136600.000			-12.835			-2.139
136701.000			-12.835			-2.139
136800.000			-12.836			-2.139
136900.000			-12.835			-2.139
137001.000			-12.835			-2.139
137101.000			-12.835			-2.139
137201.000			-12.834			-2.139
137302.000			-12.834			-2.139
137400.000			-12.834			-2.139
137500.000			-12.834			-2.139
137601.000			-12.833			-2.139
137700.000			-12.833			-2.139
137800.000			-12.833			-2.139
137900.000			-12.832			-2.139
138000.000			-12.832			-2.139
138102.000			-12.832			-2.139
138201.000			-12.833			-2.139
138300.000			-12.832			-2.139
138401.000			-12.831			-2.138
138500.000			-12.831			-2.139
138600.000			-12.831			-2.139
138701.000			-12.831			-2.138
138800.000			-12.830			-2.138
138900.000			-12.830			-2.138
139002.000			-12.830			-2.138
139101.000			-12.830			-2.138
139201.000			-12.830			-2.138
139301.000			-12.830			-2.138
139400.000			-12.831			-2.138
139500.000			-12.830			-2.138
139601.000			-12.831			-2.138
139700.000			-12.829			-2.138
139800.000			-12.829			-2.138
139902.000			-12.830			-2.138
140001.000			-12.829			-2.138
140101.000			-12.828			-2.138
140201.000			-12.828			-2.138
140300.000			-12.828			-2.138
140400.000			-12.827			-2.138
140501.000			-12.828			-2.138
140600.000			-12.827			-2.138
140700.000			-12.827			-2.138
140801.000			-12.827			-2.138
140901.000			-12.827			-2.138
141002.000			-12.826			-2.138
141100.000			-12.826			-2.138
141200.000			-12.826			-2.138
141301.000			-12.826			-2.138
141400.000			-12.826			-2.138
141500.000			-12.826			-2.138
141601.000			-12.826			-2.138
141700.000			-12.825			-2.137
141801.000			-12.825			-2.137
141902.000			-12.825			-2.138
142000.000			-12.825			-2.137
142100.000			-12.824			-2.137
142201.000			-12.825			-2.138
142300.000			-12.824			-2.137
142400.000			-12.824			-2.137
142501.000			-12.824			-2.137
142600.000			-12.824			-2.137
142701.000			-12.823			-2.137
142802.000			-12.823			-2.137
142900.000			-12.822			-2.137
143000.000			-12.823			-2.137
143101.000			-12.822			-2.137
143200.000			-12.821			-2.137
143300.000			-12.822			-2.137
143401.000			-12.822			-2.137
143500.000			-12.822			-2.137
143601.000			-12.822			-2.137
143702.000			-12.821			-2.137
143801.000			-12.822			-2.137
143900.000			-12.822			-2.137
144001.000			-12.821			-2.137
144100.000			-12.820			-2.137
144200.000			-12.820			-2.137
144300.000			-12.821			-2.137
144400.000			-12.820			-2.137
144502.000			-12.819			-2.137
144601.000			-12.820			-2.137
144701.000			-12.820			-2.137
144801.000			-12.819			-2.137
144900.000			-12.819			-2.137
145000.000			-12.819			-2.137
145101.000			-12.819			-2.137
145200.000			-12.818			-2.136
145300.000			-12.818			-2.136
145402.000			-12.818			-2.136
145501.000			-12.818			-2.136
145601.000			-12.818			-2.136
145701.000			-12.817			-2.136
145800.000			-12.816			-2.136
145900.000			-12.816			-2.136
146001.000			-12.816			-2.136
146100.000			-12.817			-2.136
146200.000			-12.817			-2.136
146301.000			-12.816			-2.136
146401.000			-12.816			-2.136
146501.000			-12.816			-2.136
146601.000			-12.816			-2.136
146700.000			-12.816			-2.136
146800.000			-12.815			-2.136
146901.000			-12.814			-2.136
147000.000			-12.815			-2.136
147100.000			-12.814			-2.136
147201.000			-12.813			-2.136
147301.000			-12.814			-2.136
147402.000			-12.813			-2.136
147501.000			-12.813			-2.136
147600.000			-12.813			-2.136
147701.000			-12.813			-2.136
147800.000			-12.813			-2.135
147900.000			-12.812			-2.135
148001.000			-12.813			-2.136
148100.000			-12.813			-2.135
148200.000			-12.813			-2.135
148302.000			-12.812			-2.135
148401.000			-12.812			-2.135
148500.000			-12.812			-2.135
148601.000			-12.812			-2.135
148700.000			-12.810			-2.135
148800.000			-12.809			-2.135
148901.000			-12.810			-2.135
149000.000			-12.811			-2.135
149100.000			-12.811			-2.135
149202.000			-12.811			-2.135
149301.000			-12.811			-2.135
149400.000			-12.810			-2.135
149501.000			-12.810			-2.135
149600.000			-12.809			-2.135
149700.000			-12.809			-2.135
149801.000			-12.808			-2.135
149900.000			-12.808			-2.135
150000.000			-12.809			-2.135
150102.000			-12.809			-2.135
150201.000			-12.809			-2.135
150301.000			-12.807			-2.135
150401.000			-12.807			-2.134
150500.000			-12.807			-2.135
150600.000			-12.807			-2.134
150700.000			-12.807			-2.135
150800.000			-12.807			-2.135
150901.000			-12.807			-2.134
151000.000			-12.806			-2.134
151101.000			-12.807			-2.134
151202.000			-12.807			-2.134
151300.000			-12.807			-2.134
151400.000			-12.805			-2.134
151501.000			-12.805			-2.134
151600.000			-12.806			-2.134
151700.000			-12.805			-2.134
151801.000			-12.805			-2.134
151900.000			-12.806			-2.134
152001.000			-12.805			-2.134
152102.000			-12.804			-2.134
152201.000			-12.805			-2.134
152300.000			-12.804			-2.134
152401.000			-12.803			-2.134
152500.000			-12.804			-2.134
152600.000			-12.804			-2.134
152701.000			-12.803			-2.134
152800.000			-12.803			-2.134
152901.000			-12.803			-2.134
153002.000			-12.802			-2.134
153101.000			-12.803			-2.134
153200.000			-12.803			-2.134
153301.000			-12.803			-2.134
153400.000			-12.802			-2.134
153500.000			-12.801			-2.134
153601.000			-12.801			-2.133
153700.000			-12.802			-2.134
153802.000			-12.801			-2.133
153901.000			-12.800			-2.133
154001.000			-12.800			-2.133
154101.000			-12.801			-2.133
154200.000			-12.801			-2.133
154300.000			-12.800			-2.133
154401.000			-12.801			-2.133
154500.000			-12.801			-2.133
154600.000			-12.800			-2.133
154701.000			-12.800			-2.133
154801.000			-12.799			-2.133
154901.000			-12.799			-2.133
155001.000			-12.799			-2.133
155100.000			-12.799			-2.133
155200.000			-12.798			-2.133
155301.000			-12.798			-2.133
155400.000			-12.798			-2.133
155500.000			-12.798			-2.133
155601.000			-12.797			-2.133
155701.000			-12.797			-2.133
155801.000			-12.797			-2.133
155902.000			-12.797			-2.133
156000.000			-12.797			-2.133
156100.000			-12.796			-2.133
156201.000			-12.796			-2.133
156300.000			-12.797			-2.133
156400.000			-12.797			-2.133
156501.000			-12.796			-2.133
156600.000			-12.795			-2.133
156701.000			-12.796			-2.133
156802.000			-12.795			-2.132
156901.000			-12.796			-2.133
157000.000			-12.796			-2.133
157100.000			-12.795			-2.132
157200.000			-12.795			-2.133
157301.000			-12.794			-2.132
157400.000			-12.794			-2.132
157500.000			-12.794			-2.132
157601.000			-12.793			-2.132
157701.000			-12.794			-2.132
157801.000			-12.793			-2.132
157901.000			-12.793			-2.132
158000.000			-12.793			-2.132
158100.000			-12.793			-2.132
158201.000			-12.793			-2.132
158300.000			-12.792			-2.132
158400.000			-12.793			-2.132
158501.000			-12.792			-2.132
158600.000			-12.791			-2.132
158701.000			-12.792			-2.132
158802.000			-12.792			-2.132
158900.000			-12.791			-2.132
159000.000			-12.791			-2.132
159101.000			-12.791			-2.132
159200.000			-12.792			-2.132
159300.000			-12.791			-2.132
159401.000			-12.791			-2.132
159500.000			-12.790			-2.132
159601.000			-12.790			-2.132
159702.000			-12.790			-2.132
159801.000			-12.790			-2.132
159900.000			-12.790			-2.132
160001.000			-12.790			-2.132
160100.000			-12.789			-2.132
160200.000			-12.789			-2.131
160300.000			-12.788			-2.131
160400.000			-12.789			-2.131
160501.000			-12.788			-2.131
160601.000			-12.787			-2.131
160701.000			-12.787			-2.131
160802.000			-12.788			-2.131
160900.000			-12.788			-2.131
161000.000			-12.788			-2.131
161101.000			-12.787			-2.131
161200.000			-12.787			-2.131
161300.000			-12.787			-2.131
161401.000			-12.787			-2.131
161500.000			-12.787			-2.131
161601.000			-12.788			-2.131
161702.000			-12.787			-2.131
161800.000			-12.787			-2.131
161900.000			-12.788			-2.131
162001.000			-12.787			-2.131
162100.000			-12.786			-2.131
162200.000			-12.786			-2.131
162301.000			-12.787			-2.131
162400.000			-12.786			-2.131
162501.000			-12.786			-2.131
162602.000			-12.785			-2.131
162701.000			-12.785			-2.131
162800.000			-12.784			-2.131
162901.000			-12.784			-2.131
163000.000			-12.785			-2.131
163100.000			-12.784			-2.131
163201.000			-12.784			-2.131
163300.000			-12.784			-2.131
163400.000			-12.784			-2.131
163502.000			-12.785			-2.131
163601.000			-12.784			-2.131
163701.000			-12.784			-2.131
163800.000			-12.784			-2.131
163900.000			-12.783			-2.131
164001.000			-12.782			-2.130
164100.000			-12.783			-2.130
164200.000			-12.782			-2.130
164301.000			-12.782			-2.130
164401.000			-12.783			-2.130
164501.000			-12.782			-2.130
164601.000			-12.781			-2.130
164700.000			-12.781			-2.130
164800.000			-12.781			-2.130
164901.000			-12.782			-2.130
165000.000			-12.781			-2.130
165100.000			-12.781			-2.130
165201.000			-12.781			-2.130
165301.000			-12.780			-2.130
165401.000			-12.780			-2.130
165502.000			-12.781			-2.130
165600.000			-12.780			-2.130
165700.000			-12.779			-2.130
165801.000			-12.779			-2.130
165900.000			-12.779			-2.130
166000.000			-12.779			-2.130
166101.000			-12.779			-2.130
166200.000			-12.778			-2.130
166301.000			-12.778			-2.130
166402.000			-12.778			-2.130
166501.000			-12.778			-2.130
166600.000			-12.778			-2.130
166700.000			-12.779			-2.130
166800.000			-12.778			-2.130
166901.000			-12.776			-2.129
167000.000			-12.777			-2.129
167100.000			-12.777			-2.130
167201.000			-12.777			-2.130
167301.000			-12.778			-2.130
167401.000			-12.777			-2.129
167502.000			-12.776			-2.129
167600.000			-12.776			-2.129
167700.000			-12.776			-2.129
167801.000			-12.776			-2.129
167900.000			-12.776			-2.129
168000.000			-12.775			-2.129
168101.000			-12.775			-2.129
168200.000			-12.775			-2.129
168301.000			-12.776			-2.129
168402.000			-12.775			-2.129
168501.000			-12.775			-2.129
168600.000			-12.775			-2.129
168701.000			-12.775			-2.129
168800.000			-12.774			-2.129
168900.000			-12.774			-2.129
169001.000			-12.774			-2.129
169100.000			-12.773			-2.129
169200.000			-12.773			-2.129
169302.000			-12.773			-2.129
169401.000			-12.773			-2.129
169500.000			-12.773			-2.129
169601.000			-12.773			-2.129
169700.000			-12.773			-2.129
169800.000			-12.773			-2.129
169900.000			-12.773			-2.129
170000.000			-12.773			-2.129
170101.000			-12.772			-2.129
170201.000			-12.773			-2.129
170301.000			-12.772			-2.129
170402.000			-12.772			-2.129
170500.000			-12.771			-2.128
170600.000			-12.770			-2.128
170701.000			-12.771			-2.129
170800.000			-12.771			-2.129
170900.000			-12.771			-2.128
171001.000			-12.771			-2.128
171100.000			-12.771			-2.129
171201.000			-12.771			-2.128
171302.000			-12.770			-2.128
171400.000			-12.771			-2.128
171500.000			-12.770			-2.128
171601.000			-12.769			-2.128
171700.000			-12.769			-2.128
171800.000			-12.770			-2.128
171901.000			-12.770			-2.128
172000.000			-12.769			-2.128
172101.000			-12.769			-2.128
172202.000			-12.769			-2.128
172301.000			-12.769			-2.128
172400.000			-12.769			-2.128
172501.000			-12.767			-2.128
172600.000			-12.768			-2.128
172700.000			-12.768			-2.128
172801.000			-12.767			-2.128
172900.000			-12.767			-2.128
173000.000			-12.768			-2.128
173102.000			-12.768			-2.128
173201.000			-12.768			-2.128
173301.000			-12.767			-2.128
173400.000			-12.767			-2.128
173500.000			-12.767			-2.128
173601.000			-12.766			-2.128
173700.000			-12.766			-2.128
173800.000			-12.767			-2.128
173901.000			-12.767			-2.128
174001.000			-12.766			-2.128
174101.000			-12.765			-2.127
174202.000			-12.766			-2.128
174300.000			-12.765			-2.128
174400.000			-12.764			-2.127
174501.000			-12.764			-2.127
174600.000			-12.765			-2.127
174700.000			-12.765			-2.128
174801.000			-12.765			-2.127
174900.000			-12.763			-2.127
175001.000			-12.764			-2.127
175102.000			-12.764			-2.127
175201.000			-12.764			-2.127
175300.000			-12.765			-2.127
175401.000			-12.763			-2.127
175500.000			-12.763			-2.127
175600.000			-12.763			-2.127
175701.000			-12.762			-2.127
175800.000			-12.762			-2.127
175900.000			-12.763			-2.127
176002.000			-12.762			-2.127
176101.000			-12.762			-2.127
176200.000			-12.763			-2.127
176300.000			-12.762			-2.127
176400.000			-12.762			-2.127
176501.000			-12.761			-2.127
176600.000			-12.761			-2.127
176700.000			-12.762			-2.127
176801.000			-12.762			-2.127
176901.000			-12.761			-2.127
177001.000			-12.760			-2.127
177102.000			-12.760			-2.127
177200.000			-12.759			-2.127
177300.000			-12.760			-2.127
177401.000			-12.760			-2.127
177500.000			-12.760			-2.127
177600.000			-12.760			-2.127
177701.000			-12.759			-2.127
177800.000			-12.759			-2.126
177901.000			-12.759			-2.126
178002.000			-12.758			-2.126
178101.000			-12.758			-2.126
178200.000			-12.759			-2.126
178301.000			-12.759			-2.127
178400.000			-12.759			-2.127
178500.000			-12.758			-2.126
178601.000			-12.758			-2.126
178700.000			-12.759			-2.126
178800.000			-12.758			-2.126
178902.000			-12.758			-2.126
179001.000			-12.757			-2.126
179101.000			-12.758			-2.126
179201.000			-12.758			-2.126
179300.000			-12.758			-2.126
179400.000			-12.758			-2.126
179500.000			-12.757			-2.126
179600.000			-12.757			-2.126
179701.000			-12.755			-2.126
179800.000			-12.757			-2.126
179901.000			-12.757			-2.126
180002.000			-12.756			-2.126
180101.000			-12.755			-2.126
180200.000			-12.755			-2.126
180301.000			-12.755			-2.126
180400.000			-12.756			-2.126
180500.000			-12.755			-2.126
180601.000			-12.756			-2.126
180700.000			-12.756			-2.126
180800.000			-12.755			-2.126
180902.000			-12.755			-2.126
181001.000			-12.756			-2.126
181100.000			-12.755			-2.126
181201.000			-12.755			-2.126
181300.000			-12.754			-2.126
181400.000			-12.754			-2.126
181501.000			-12.754			-2.126
181600.000			-12.754			-2.126
181700.000			-12.754			-2.126
181802.000			-12.753			-2.126
181901.000			-12.753			-2.126
182001.000			-12.753			-2.126
182101.000			-12.753			-2.126
182200.000			-12.753			-2.125
182300.000			-12.753			-2.126
182401.000			-12.753			-2.125
182500.000			-12.752			-2.125
182600.000			-12.753			-2.125
182702.000			-12.752			-2.125
182801.000			-12.751			-2.125
182902.000			-12.752			-2.125
183000.000			-12.752			-2.125
183100.000			-12.751			-2.125
183201.000			-12.751			-2.125
183300.000			-12.751			-2.125
183400.000			-12.751			-2.125
183501.000			-12.750			-2.125
183600.000			-12.750			-2.125
183701.000			-12.750			-2.125
183802.000			-12.750			-2.125
183901.000			-12.750			-2.125
184000.000			-12.751			-2.125
184101.000			-12.751			-2.125
184200.000			-12.750			-2.125
184300.000			-12.749			-2.125
184401.000			-12.750			-2.125
184500.000			-12.749			-2.125
184600.000			-12.748			-2.125
184702.000			-12.748			-2.125
184801.000			-12.750			-2.125
184900.000			-12.750			-2.125
185001.000			-12.749			-2.125
185100.000			-12.748			-2.125
185200.000			-12.747			-2.124
185301.000			-12.748			-2.125
185400.000			-12.749			-2.125
185500.000			-12.749			-2.125
185601.000			-12.746			-2.124
185701.000			-12.747			-2.124
185802.000			-12.748			-2.125
185900.000			-12.747			-2.125
186000.000			-12.747			-2.124
186101.000			-12.747			-2.124
186200.000			-12.746			-2.124
186300.000			-12.746			-2.124
186401.000			-12.746			-2.124
186500.000			-12.745			-2.124
186601.000			-12.746			-2.124
186702.000			-12.746			-2.124
186801.000			-12.745			-2.124
186900.000			-12.744			-2.124
187001.000			-12.745			-2.124
187100.000			-12.745			-2.124
187200.000			-12.745			-2.124
187301.000			-12.745			-2.124
187400.000			-12.744			-2.124
187500.000			-12.744			-2.124
187602.000			-12.746			-2.124
187701.000			-12.744			-2.124
187800.000			-12.744			-2.124
187901.000			-12.743			-2.124
188000.000			-12.744			-2.124
188100.000			-12.744			-2.124
188201.000			-12.744			-2.124
188300.000			-12.743			-2.124
188400.000			-12.744			-2.124
188501.000			-12.744			-2.124
188601.000			-12.743			-2.124
188701.000			-12.742			-2.124
188801.000			-12.742			-2.124
188900.000			-12.742			-2.124
189000.000			-12.742			-2.124
189100.000			-12.741			-2.124
189200.000			-12.742			-2.124
189301.000			-12.741			-2.124
189400.000			-12.741			-2.124
189501.000			-12.742			-2.124
189602.000			-12.741			-2.124
189701.000			-12.740			-2.123
189800.000			-12.740			-2.123
189901.000			-12.740			-2.123
190000.000			-12.741			-2.124
190100.000			-12.741			-2.123
190201.000			-12.740			-2.123
190300.000			-12.741			-2.123
190400.000			-12.740			-2.123
190502.000			-12.740			-2.123
190601.000			-12.740			-2.123
190700.000			-12.739			-2.123
190801.000			-12.739			-2.123
190900.000			-12.740			-2.123
191000.000			-12.739			-2.123
191101.000			-12.739			-2.123
191200.000			-12.740			-2.123
191300.000			-12.738			-2.123
191402.000			-12.738			-2.123
191501.000			-12.739			-2.123
191600.000			-12.738			-2.123
191701.000			-12.737			-2.123
191800.000			-12.736			-2.123
191900.000			-12.737			-2.123
192001.000			-12.737			-2.123
192100.000			-12.736			-2.123
192200.000			-12.737			-2.123
192302.000			-12.737			-2.123
192401.000			-12.736			-2.123
192502.000			-12.736			-2.123
192600.000			-12.736			-2.123
192700.000			-12.736			-2.123
192801.000			-12.736			-2.123
192900.000			-12.735			-2.123
193000.000			-12.736			-2.123
193101.000			-12.736			-2.123
193200.000			-12.735			-2.123
193301.000			-12.735			-2.122
193402.000			-12.735			-2.122
193501.000			-12.735			-2.122
193600.000			-12.735			-2.123
193701.000			-12.735			-2.123
193800.000			-12.734			-2.122
193900.000			-12.733			-2.122
194001.000			-12.733			-2.122
194100.000			-12.733			-2.122
194201.000			-12.735			-2.122
194302.000			-12.734			-2.122
194401.000			-12.733			-2.122
194500.000			-12.733			-2.122
194601.000			-12.733			-2.122
194700.000			-12.733			-2.122
194800.000			-12.732			-2.122
194901.000			-12.731			-2.122
195000.000			-12.733			-2.122
195100.000			-12.734			-2.122
195202.000			-12.733			-2.122
195301.000			-12.733			-2.122
195400.000			-12.732			-2.122
195500.000			-12.732			-2.122
195600.000			-12.731			-2.122
195701.000			-12.731			-2.122
195800.000			-12.731			-2.122
195900.000			-12.731			-2.122
196001.000			-12.731			-2.122
196101.000			-12.731			-2.122
196201.000			-12.732			-2.122
196302.000			-12.732			-2.122
196400.000			-12.731			-2.122
196500.000			-12.730			-2.122
196601.000			-12.730			-2.122
196700.000			-12.729			-2.121
196800.000			-12.729			-2.122
196901.000			-12.730			-2.122
197000.000			-12.730			-2.122
197101.000			-12.730			-2.122
197202.000			-12.729			-2.122
197301.000			-12.729			-2.122
197400.000			-12.729			-2.122
197501.000			-12.728			-2.121
197600.000			-12.728			-2.121
197700.000			-12.728			-2.121
197801.000			-12.728			-2.121
197900.000			-12.728			-2.121
198000.000			-12.727			-2.121
198102.000			-12.728			-2.121
198201.000			-12.729			-2.121
198301.000			-12.728			-2.121
198401.000			-12.727			-2.121
198500.000			-12.727			-2.121
198600.000			-12.727			-2.121
198700.000			-12.726			-2.121
198800.000			-12.727			-2.121
198901.000			-12.726			-2.121
199000.000			-12.726			-2.121
199101.000			-12.726			-2.121
199202.000			-12.727			-2.121
199300.000			-12.726			-2.121
199400.000			-12.726			-2.121
199501.000			-12.726			-2.121
199600.000			-12.725			-2.121
199700.000			-12.724			-2.121
199801.000			-12.725			-2.121
199900.000			-12.725			-2.121
200000.000			-12.725			-2.121
200102.000			-12.725			-2.121
200201.000			-12.725			-2.121
200300.000			-12.725			-2.121
200401.000			-12.725			-2.121
200500.000			-12.725			-2.121
200600.000			-12.724			-2.121
200701.000			-12.724			-2.121
200800.000			-12.724			-2.121
200901.000			-12.723			-2.121
201002.000			-12.722			-2.120
201101.000			-12.722			-2.120
201200.000			-12.723			-2.120
201301.000			-12.723			-2.121
201400.000			-12.722			-2.120
201500.000			-12.723			-2.120
201601.000			-12.722			-2.120
201700.000			-12.723			-2.120
201802.000			-12.723			-2.120
201901.000			-12.722			-2.120
202001.000			-12.723			-2.120
202101.000			-12.722			-2.120
202200.000			-12.721			-2.120
202300.000			-12.721			-2.120
202401.000			-12.721			-2.120
202500.000			-12.720			-2.120
202600.000			-12.720			-2.120
202702.000			-12.721			-2.120
202801.000			-12.720			-2.120
202901.000			-12.720			-2.120
203001.000			-12.720			-2.120
203100.000			-12.720			-2.120
203200.000			-12.720			-2.120
203301.000			-12.719			-2.120
203400.000			-12.719			-2.120
203500.000			-12.720			-2.120
203602.000			-12.720			-2.120
203701.000			-12.718			-2.120
203801.000			-12.719			-2.120
203901.000			-12.719			-2.120
204000.000			-12.718			-2.120
204100.000			-12.718			-2.120
204201.000			-12.718			-2.120
204300.000			-12.719			-2.120
204400.000			-12.718			-2.120
204501.000			-12.717			-2.120
204601.000			-12.717			-2.120
204701.000			-12.717			-2.120
204801.000			-12.717			-2.119
204900.000			-12.717			-2.119
205000.000			-12.718			-2.120
205100.000			-12.718			-2.120
205200.000			-12.718			-2.120
205301.000			-12.717			-2.120
205400.000			-12.716			-2.119
205501.000			-12.716			-2.119
205602.000			-12.715			-2.119
205700.000			-12.716			-2.119
205800.000			-12.717			-2.119
205901.000			-12.716			-2.119
206000.000			-12.715			-2.119
206100.000			-12.714			-2.119
206201.000			-12.715			-2.119
206300.000			-12.715			-2.119
206401.000			-12.715			-2.119
206502.000			-12.716			-2.119
206600.000			-12.716			-2.119
206700.000			-12.715			-2.119
206801.000			-12.715			-2.119
206900.000			-12.714			-2.119
207000.000			-12.715			-2.119
207101.000			-12.713			-2.119
207200.000			-12.713			-2.119
207301.000			-12.714			-2.119
207402.000			-12.714			-2.119
207500.000			-12.714			-2.119
207600.000			-12.713			-2.119
207701.000			-12.713			-2.119
207800.000			-12.714			-2.119
207900.000			-12.714			-2.119
208001.000			-12.712			-2.119
208100.000			-12.712			-2.119
208202.000			-12.712			-2.119
208301.000			-12.712			-2.119
208400.000			-12.712			-2.119
208501.000			-12.712			-2.119
208600.000			-12.712			-2.119
208700.000			-12.712			-2.119
208801.000			-12.712			-2.119
208900.000			-12.711			-2.119
209000.000			-12.712			-2.119
209102.000			-12.711			-2.119
209201.000			-12.711			-2.119
209301.000			-12.711			-2.119
209401.000			-12.711			-2.118
209500.000			-12.710			-2.118
209600.000			-12.711			-2.119
209701.000			-12.711			-2.119
209800.000			-12.710			-2.118
209900.000			-12.710			-2.118
210002.000			-12.710			-2.118
210101.000			-12.709			-2.118
210201.000			-12.710			-2.118
210301.000			-12.711			-2.118
210400.000			-12.709			-2.118
210500.000			-12.709			-2.118
210601.000			-12.709			-2.118
210700.000			-12.709			-2.118
210800.000			-12.709			-2.118
210902.000			-12.708			-2.118
211001.000			-12.708			-2.118
211101.000			-12.708			-2.118
211201.000			-12.708			-2.118
211300.000			-12.709			-2.118
211400.000			-12.709			-2.118
211500.000			-12.709			-2.118
211600.000			-12.706			-2.118
211701.000			-12.707			-2.118
211801.000			-12.708			-2.118
211901.000			-12.708			-2.118
212002.000			-12.708			-2.118
212100.000			-12.706			-2.118
212200.000			-12.707			-2.118
212301.000			-12.707			-2.118
212400.000			-12.707			-2.118
212500.000			-12.707			-2.118
212601.000			-12.706			-2.118
212701.000			-12.706			-2.118
212801.000			-12.706			-2.118
212902.000			-12.707			-2.118
213000.000			-12.707			-2.118
213100.000			-12.706			-2.118
213201.000			-12.705			-2.117
213300.000			-12.705			-2.117
213400.000			-12.705			-2.118
213501.000			-12.705			-2.117
213601.000			-12.705			-2.117
213701.000			-12.705			-2.117
213802.000			-12.704			-2.117
213900.000			-12.704			-2.117
214000.000			-12.705			-2.118
214101.000			-12.704			-2.117
214200.000			-12.704			-2.117
214300.000			-12.704			-2.117
214401.000			-12.703			-2.117
214501.000			-12.703			-2.117
214602.000			-12.704			-2.117
214701.000			-12.703			-2.117
214800.000			-12.703			-2.117
214901.000			-12.703			-2.117
215000.000			-12.703			-2.117
215100.000			-12.704			-2.117
215201.000			-12.702			-2.117
215300.000			-12.702			-2.117
215401.000			-12.703			-2.117
215502.000			-12.702			-2.117
215601.000			-12.702			-2.117
215700.000			-12.702			-2.117
215801.000			-12.702			-2.117
215900.000			-12.702			-2.117
216000.000			-12.701			-2.117
216101.000			-12.701			-2.117
216200.000			-12.702			-2.117
216301.000			-12.702			-2.117
216402.000			-12.702			-2.117
216501.000			-12.702			-2.117
216600.000			-12.701			-2.117
216701.000			-12.701			-2.117
216800.000			-12.702			-2.117
216900.000			-12.701			-2.117
217001.000			-12.700			-2.117
217100.000			-12.700			-2.117
217201.000			-12.700			-2.117
217302.000			-12.700			-2.117
217401.000			-12.699			-2.117
217500.000			-12.700			-2.117
217601.000			-12.700			-2.117
217700.000			-12.700			-2.117
217800.000			-12.701			-2.117
217900.000			-12.701			-2.117
218000.000			-12.701			-2.117
218101.000			-12.699			-2.116
218201.000			-12.699			-2.116
218301.000			-12.699			-2.116
218401.000			-12.699			-2.117
218500.000			-12.698			-2.116
218600.000			-12.699			-2.116
218701.000			-12.698			-2.116
218800.000			-12.698			-2.116
218900.000			-12.697			-2.116
219001.000			-12.697			-2.116
219101.000			-12.697			-2.116
219201.000			-12.697			-2.116
219302.000			-12.697			-2.116
219400.000			-12.697			-2.116
219500.000			-12.697			-2.116
219601.000			-12.698			-2.116
219700.000			-12.697			-2.116
219800.000			-12.697			-2.116
219901.000			-12.697			-2.116
220000.000			-12.697			-2.116
220101.000			-12.697			-2.116
220202.000			-12.696			-2.116
220300.000			-12.696			-2.116
220400.000			-12.696			-2.116
220501.000			-12.695			-2.116
220600.000			-12.695			-2.116
220700.000			-12.696			-2.116
220801.000			-12.696			-2.116
220900.000			-12.696			-2.116
221002.000			-12.694			-2.116
221101.000			-12.694			-2.116
221201.000			-12.695			-2.116
221301.000			-12.695			-2.116
221400.000			-12.695			-2.116
221500.000			-12.695			-2.116
221601.000			-12.695			-2.116
221700.000			-12.694			-2.116
221800.000			-12.694			-2.116
221901.000			-12.694			-2.116
222001.000			-12.693			-2.116
222101.000			-12.694			-2.116
222201.000			-12.694			-2.116
222300.000			-12.694			-2.116
222400.000			-12.693			-2.116
222501.000			-12.693			-2.115
222600.000			-12.692			-2.115
222700.000			-12.693			-2.115
222801.000			-12.693			-2.116
222901.000			-12.693			-2.115
223001.000			-12.693			-2.115
223101.000			-12.693			-2.115
223200.000			-12.692			-2.115
223300.000			-12.692			-2.115
223401.000			-12.692			-2.115
223500.000			-12.693			-2.115
223600.000			-12.693			-2.115
223701.000			-12.691			-2.115
223801.000			-12.691			-2.115
223901.000			-12.691			-2.115
224002.000			-12.691			-2.115
224100.000			-12.691			-2.115
224200.000			-12.691			-2.115
224300.000			-12.691			-2.115
224400.000			-12.692			-2.115
224501.000			-12.692			-2.115
224600.000			-12.691			-2.115
224701.000			-12.689			-2.115
224802.000			-12.689			-2.115
224901.000			-12.690			-2.115
225000.000			-12.690			-2.115
225101.000			-12.690			-2.115
225200.000			-12.689			-2.115
225300.000			-12.689			-2.115
225401.000			-12.690			-2.115
225500.000			-12.689			-2.115
225600.000			-12.689			-2.115
225702.000			-12.690			-2.115
225801.000			-12.690			-2.115
225901.000			-12.690			-2.115
226001.000			-12.689			-2.115
226100.000			-12.689			-2.115
226200.000			-12.689			-2.115
226301.000			-12.689			-2.115
226400.000			-12.688			-2.115
226500.000			-12.687			-2.115
226601.000			-12.688			-2.115
226701.000			-12.688			-2.115
226801.000			-12.689			-2.115
226901.000			-12.689			-2.115
227000.000			-12.687			-2.115
227100.000			-12.686			-2.114
227201.000			-12.687			-2.114
227300.000			-12.687			-2.114
227400.000			-12.687			-2.114
227500.000			-12.686			-2.114
227600.000			-12.686			-2.114
227702.000			-12.687			-2.114
227801.000			-12.687			-2.114
227900.000			-12.687			-2.115
228001.000			-12.687			-2.114
228100.000			-12.686			-2.114
228200.000			-12.685			-2.114
228301.000			-12.685			-2.114
228400.000			-12.684			-2.114
228500.000			-12.685			-2.114
228602.000			-12.685			-2.114
228701.000			-12.685			-2.114
228801.000			-12.684			-2.114
228901.000			-12.684			-2.114
229000.000			-12.685			-2.114
229100.000			-12.685			-2.114
229201.000			-12.684			-2.114
229300.000			-12.684			-2.114
229400.000			-12.683			-2.114
229501.000			-12.683			-2.114
229601.000			-12.684			-2.114
229701.000			-12.684			-2.114
229801.000			-12.684			-2.114
229900.000			-12.684			-2.114
230000.000			-12.684			-2.114
230101.000			-12.683			-2.114
230200.000			-12.682			-2.114
230300.000			-12.683			-2.114
230401.000			-12.683			-2.114
230501.000			-12.682			-2.114
230602.000			-12.682			-2.114
230701.000			-12.682			-2.114
230800.000			-12.682			-2.114
230901.000			-12.681			-2.114
231000.000			-12.681			-2.113
231100.000			-12.682			-2.114
231201.000			-12.682			-2.114
231300.000			-12.681			-2.114
231401.000			-12.682			-2.114
231502.000			-12.681			-2.114
231601.000			-12.681			-2.114
231700.000			-12.681			-2.113
231801.000			-12.680			-2.113
231900.000			-12.682			-2.114
232000.000			-12.681			-2.113
232101.000			-12.679			-2.113
232200.000			-12.680			-2.113
232300.000			-12.680			-2.113
232402.000			-12.679			-2.113
232501.000			-12.679			-2.113
232600.000			-12.681			-2.113
232701.000			-12.680			-2.113
232800.000			-12.679			-2.113
232900.000			-12.679			-2.113
233001.000			-12.679			-2.113
233100.000			-12.679			-2.113
233200.000			-12.679			-2.113
233302.000			-12.678			-2.113
233401.000			-12.678			-2.113
233501.000			-12.678			-2.113
233601.000			-12.678			-2.113
233700.000			-12.677			-2.113
233800.000			-12.678			-2.113
233900.000			-12.677			-2.113
234000.000			-12.677			-2.113
234101.000			-12.677			-2.113
234200.000			-12.677			-2.113
234301.000			-12.677			-2.113
234402.000			-12.676			-2.113
234501.000			-12.676			-2.113
234600.000			-12.677			-2.113
234701.000			-12.677			-2.113
234800.000			-12.676			-2.113
234900.000			-12.676			-2.113
235001.000			-12.676			-2.113
235100.000			-12.675			-2.113
235201.000			-12.675			-2.113
235302.000			-12.677			-2.113
235401.000			-12.677			-2.113
235500.000			-12.675			-2.113
235601.000			-12.674			-2.112
235700.000			-12.677			-2.113
235800.000			-12.676			-2.113
235901.000			-12.675			-2.112
236000.000			-12.674			-2.112
236100.000			-12.674			-2.112
236202.000			-12.674			-2.112
236301.000			-12.674			-2.112
236400.000			-12.674			-2.112
236501.000			-12.675			-2.112
236600.000			-12.674			-2.112
236700.000			-12.674			-2.112
236801.000			-12.674			-2.112
236900.000			-12.673			-2.112
237000.000			-12.673			-2.112
237102.000			-12.674			-2.112
237201.000			-12.674			-2.112
237302.000			-12.674			-2.112
237400.000			-12.674			-2.112
237500.000			-12.673			-2.112
237601.000			-12.672			-2.112
237700.000			-12.672			-2.112
237800.000			-12.671			-2.112
237901.000			-12.671			-2.112
238000.000			-12.672			-2.112
238101.000			-12.672			-2.112
238202.000			-12.673			-2.112
238300.000			-12.672			-2.112
238400.000			-12.672			-2.112
238501.000			-12.671			-2.112
238600.000			-12.670			-2.112
238700.000			-12.671			-2.112
238801.000			-12.672			-2.112
238900.000			-12.671			-2.112
239001.000			-12.671			-2.112
239102.000			-12.670			-2.112
239201.000			-12.670			-2.112
239300.000			-12.671			-2.112
239401.000			-12.670			-2.112
239500.000			-12.670			-2.112
239600.000			-12.670			-2.112
239701.000			-12.669			-2.111
239800.000			-12.670			-2.112
239900.000			-12.670			-2.112
240002.000			-12.670			-2.112
240101.000			-12.669			-2.112
240200.000			-12.669			-2.112
240300.000			-12.669			-2.111
240400.000			-12.668			-2.111
240501.000			-12.668			-2.111
240600.000			-12.669			-2.112
240700.000			-12.669			-2.111
240801.000			-12.669			-2.111
240901.000			-12.670			-2.112
241001.000			-12.669			-2.111
241102.000			-12.669			-2.111
241200.000			-12.668			-2.111
241300.000			-12.669			-2.111
241401.000			-12.669			-2.111
241500.000			-12.669			-2.111
241600.000			-12.668			-2.111
241701.000			-12.668			-2.111
241800.000			-12.668			-2.111
241901.000			-12.668			-2.111
242002.000			-12.668			-2.111
242100.000			-12.667			-2.111
242200.000			-12.668			-2.111
242301.000			-12.667			-2.111
242400.000			-12.667			-2.111
242500.000			-12.667			-2.111
242601.000			-12.668			-2.111
242700.000			-12.667			-2.111
242801.000			-12.667			-2.111
242902.000			-12.667			-2.111
243001.000			-12.667			-2.111
243100.000			-12.667			-2.111
243201.000			-12.666			-2.111
243300.000			-12.666			-2.111
243400.000			-12.666			-2.111
243500.000			-12.667			-2.111
243600.000			-12.666			-2.111
243701.000			-12.667			-2.111
243801.000			-12.667			-2.111
243901.000			-12.666			-2.111
244001.000			-12.666			-2.111
244100.000			-12.664			-2.111
244200.000			-12.665			-2.111
244301.000			-12.665			-2.111
244400.000			-12.664			-2.111
244500.000			-12.664			-2.111
244601.000			-12.664			-2.111
244701.000			-12.664			-2.111
244801.000			-12.663			-2.111
244901.000			-12.666			-2.111
245000.000			-12.665			-2.111
245100.000			-12.664			-2.111
245201.000			-12.664			-2.111
245300.000			-12.664			-2.111
245400.000			-12.664			-2.111
245501.000			-12.664			-2.111
245601.000			-12.663			-2.110
245701.000			-12.663			-2.110
245802.000			-12.662			-2.110
245900.000			-12.663			-2.111
246000.000			-12.664			-2.111
246101.000			-12.663			-2.111
246200.000			-12.663			-2.111
246300.000			-12.664			-2.111
246401.000			-12.663			-2.110
246500.000			-12.663			-2.110
246602.000			-12.662			-2.110
246701.000			-12.661			-2.110
246800.000			-12.661			-2.110
246901.000			-12.661			-2.110
247000.000			-12.662			-2.110
247100.000			-12.662			-2.110
247201.000			-12.662			-2.110
247300.000			-12.662			-2.110
247400.000			-12.661			-2.110
247502.000			-12.662			-2.110
247601.000			-12.662			-2.110
247701.000			-12.660			-2.110
247801.000			-12.660			-2.110
247900.000			-12.661			-2.110
248000.000			-12.661			-2.110
248101.000			-12.661			-2.110
248200.000			-12.660			-2.110
248300.000			-12.661			-2.110
248401.000			-12.660			-2.110
248501.000			-12.661			-2.110
248601.000			-12.660			-2.110
248701.000			-12.660			-2.110
248800.000			-12.659			-2.110
248900.000			-12.659			-2.110
249001.000			-12.659			-2.110
249100.000			-12.660			-2.110
249200.000			-12.660			-2.110
249301.000			-12.660			-2.110
249401.000			-12.660			-2.110
249501.000			-12.659			-2.110
249602.000			-12.659			-2.110
249700.000			-12.659			-2.110
249800.000			-12.658			-2.110
249900.000			-12.659			-2.110
250000.000			-12.658			-2.110
250101.000			-12.658			-2.110
250200.000			-12.658			-2.110
250300.000			-12.659			-2.110
250402.000			-12.659			-2.110
250501.000			-12.658			-2.110
250601.000			-12.658			-2.110
250701.000			-12.657			-2.110
250800.000			-12.657			-2.110
250900.000			-12.657			-2.109
251001.000			-12.658			-2.110
251100.000			-12.658			-2.110
251200.000			-12.657			-2.109
251301.000			-12.656			-2.109
251401.000			-12.657			-2.109
251501.000			-12.657			-2.110
251601.000			-12.657			-2.110
251700.000			-12.657			-2.110
251800.000			-12.657			-2.109
251901.000			-12.657			-2.109
252000.000			-12.656			-2.109
252100.000			-12.657			-2.109
252201.000			-12.656			-2.109
252301.000			-12.655			-2.109
252401.000			-12.656			-2.109
252501.000			-12.656			-2.109
252600.000			-12.656			-2.109
252700.000			-12.657			-2.109
252801.000			-12.657			-2.109
252900.000			-12.656			-2.109
253000.000			-12.656			-2.109
253100.000			-12.656			-2.109
253200.000			-12.656			-2.109
253302.000			-12.655			-2.109
253401.000			-12.655			-2.109
253500.000			-12.655			-2.109
253601.000			-12.653			-2.109
253700.000			-12.654			-2.109
253800.000			-12.655			-2.109
253901.000			-12.654			-2.109
254000.000			-12.655			-2.109
254100.000			-12.655			-2.109
254202.000			-12.654			-2.109
254301.000			-12.654			-2.109
254400.000			-12.654			-2.109
254501.000			-12.654			-2.109
254600.000			-12.654			-2.109
254700.000			-12.654			-2.109
254801.000			-12.654			-2.109
254900.000			-12.654			-2.109
255000.000			-12.652			-2.109
255102.000			-12.652			-2.109
255201.000			-12.653			-2.109
255301.000			-12.652			-2.109
255401.000			-12.653			-2.109
255500.000			-12.653			-2.109
255600.000			-12.653			-2.109
255701.000			-12.651			-2.109
255800.000			-12.653			-2.109
255900.000			-12.652			-2.109
256001.000			-12.653			-2.109
256101.000			-12.652			-2.109
256202.000			-12.651			-2.109
256300.000			-12.651			-2.109
256400.000			-12.650			-2.108
256501.000			-12.651			-2.108
256600.000			-12.652			-2.109
256700.000			-12.652			-2.109
256801.000			-12.651			-2.109
256900.000			-12.651			-2.108
257001.000			-12.651			-2.109
257102.000			-12.651			-2.109
257201.000			-12.651			-2.108
257300.000			-12.650			-2.108
257401.000			-12.651			-2.108
257500.000			-12.651			-2.108
257600.000			-12.650			-2.108
257701.000			-12.650			-2.108
257800.000			-12.650			-2.108
257900.000			-12.650			-2.108
258002.000			-12.650			-2.108
258101.000			-12.650			-2.108
258200.000			-12.649			-2.108
258301.000			-12.649			-2.108
258400.000			-12.649			-2.108
258500.000			-12.649			-2.108
258601.000			-12.650			-2.108
258700.000			-12.650			-2.108
258800.000			-12.648			-2.108
258902.000			-12.649			-2.108
259001.000			-12.649			-2.108
259101.000			-12.648			-2.108
259201.000			-12.648			-2.108
259300.000			-12.649			-2.108
259400.000			-12.648			-2.108
259500.000			-12.648			-2.108
259600.000			-12.648			-2.108
259701.000			-12.648			-2.108
259800.000			-12.647			-2.108
259901.000			-12.647			-2.108
260002.000			-12.647			-2.108
260101.000			-12.647			-2.108
260200.000			-12.648			-2.108
260301.000			-12.648			-2.108
260400.000			-12.648			-2.108
260500.000			-12.647			-2.108
260601.000			-12.647			-2.108
260700.000			-12.647			-2.108
260800.000			-12.646			-2.108
260902.000			-12.646			-2.108
261001.000			-12.647			-2.108
261100.000			-12.647			-2.108
261201.000			-12.647			-2.108
261300.000			-12.646			-2.108
261400.000			-12.644			-2.107
261501.000			-12.645			-2.108
261600.000			-12.646			-2.108
261700.000			-12.645			-2.108
261802.000			-12.645			-2.108
261901.000			-12.645			-2.108
262001.000			-12.645			-2.107
262101.000			-12.645			-2.107
262200.000			-12.644			-2.107
262300.000			-12.645			-2.108
262401.000			-12.645			-2.108
262500.000			-12.645			-2.108
262600.000			-12.646			-2.108
262702.000			-12.644			-2.107
262801.000			-12.644			-2.107
262902.000			-12.644			-2.107
263000.000			-12.643			-2.107
263100.000			-12.643			-2.107
263201.000			-12.643			-2.107
263300.000			-12.643			-2.107
263400.000			-12.643			-2.107
263501.000			-12.643			-2.107
263601.000			-12.642			-2.107
263701.000			-12.643			-2.107
263802.000			-12.643			-2.107
263900.000			-12.643			-2.107
264000.000			-12.643			-2.107
264101.000			-12.643			-2.107
264200.000			-12.643			-2.107
264300.000			-12.643			-2.107
264401.000			-12.642			-2.107
264500.000			-12.642			-2.107
264601.000			-12.643			-2.107
264702.000			-12.643			-2.107
264800.000			-12.643			-2.107
264900.000			-12.643			-2.107
265001.000			-12.642			-2.107
265100.000			-12.642			-2.107
265200.000			-12.642			-2.107
265301.000			-12.642			-2.107
265400.000			-12.641			-2.107
265501.000			-12.641			-2.107
265602.000			-12.642			-2.107
265700.000			-12.642			-2.107
265800.000			-12.642			-2.107
265900.000			-12.641			-2.107
266000.000			-12.641			-2.107
266101.000			-12.641			-2.107
266200.000			-12.640			-2.107
266300.000			-12.641			-2.107
266402.000			-12.641			-2.107
266501.000			-12.640			-2.107
266601.000			-12.640			-2.107
266701.000			-12.640			-2.107
266800.000			-12.640			-2.107
266900.000			-12.640			-2.107
267001.000			-12.640			-2.107
267100.000			-12.639			-2.107
267200.000			-12.639			-2.107
267302.000			-12.639			-2.106
267401.000			-12.638			-2.106
267501.000			-12.639			-2.106
267601.000			-12.639			-2.107
267700.000			-12.639			-2.107
267800.000			-12.639			-2.107
267901.000			-12.639			-2.107
268000.000			-12.639			-2.107
268100.000			-12.638			-2.106
268201.000			-12.638			-2.106
268301.000			-12.639			-2.107
268401.000			-12.639			-2.107
268502.000			-12.640			-2.107
268600.000			-12.639			-2.106
268700.000			-12.638			-2.106
268801.000			-12.637			-2.106
268900.000			-12.637			-2.106
269000.000			-12.638			-2.106
269100.000			-12.638			-2.106
269200.000			-12.638			-2.106
269302.000			-12.638			-2.106
269401.000			-12.637			-2.106
269501.000			-12.637			-2.106
269601.000			-12.637			-2.106
269700.000			-12.638			-2.106
269800.000			-12.637			-2.106
269901.000			-12.636			-2.106
270000.000			-12.637			-2.106
270100.000			-12.636			-2.106
270201.000			-12.636			-2.106
270301.000			-12.636			-2.106
270401.000			-12.637			-2.106
270501.000			-12.637			-2.106
270600.000			-12.637			-2.106
270700.000			-12.636			-2.106
270801.000			-12.636			-2.106
270900.000			-12.636			-2.106
271000.000			-12.635			-2.106
271101.000			-12.635			-2.106
271201.000			-12.635			-2.106
271301.000			-12.635			-2.106
271401.000			-12.635			-2.106
271500.000			-12.635			-2.106
271600.000			-12.635			-2.106
271701.000			-12.635			-2.106
271800.000			-12.636			-2.106
271900.000			-12.636			-2.106
272001.000			-12.635			-2.106
272101.000			-12.635			-2.106
272202.000			-12.634			-2.106
272301.000			-12.635			-2.106
272400.000			-12.634			-2.106
272501.000			-12.634			-2.106
272600.000			-12.635			-2.106
272700.000			-12.635			-2.106
272801.000			-12.635			-2.106
272900.000			-12.634			-2.106
273000.000			-12.634			-2.106
273102.000			-12.634			-2.106
273201.000			-12.634			-2.106
273300.000			-12.633			-2.106
273401.000			-12.632			-2.105
273500.000			-12.631			-2.105
273600.000			-12.632			-2.105
273701.000			-12.632			-2.105
273800.000			-12.633			-2.105
273900.000			-12.632			-2.105
274002.000			-12.633			-2.106
274101.000			-12.634			-2.106
274200.000			-12.634			-2.106
274301.000			-12.633			-2.106
274400.000			-12.633			-2.105
274500.000			-12.632			-2.105
274601.000			-12.632			-2.105
274700.000			-12.632			-2.105
274800.000			-12.632			-2.105
274902.000			-12.632			-2.105
275001.000			-12.632			-2.105
275100.000			-12.631			-2.105
275201.000			-12.631			-2.105
275300.000			-12.631			-2.105
275400.000			-12.632			-2.105
275500.000			-12.631			-2.105
275600.000			-12.630			-2.105
275701.000			-12.630			-2.105
275801.000			-12.630			-2.105
275901.000			-12.630			-2.105
276001.000			-12.630			-2.105
276100.000			-12.630			-2.105
276200.000			-12.630			-2.105
276301.000			-12.630			-2.105
276400.000			-12.630			-2.105
276500.000			-12.629			-2.105
276601.000			-12.628			-2.105
276701.000			-12.630			-2.105
276801.000			-12.631			-2.105
276902.000			-12.630			-2.105
277000.000			-12.629			-2.105
277100.000			-12.629			-2.105
277201.000			-12.629			-2.105
277300.000			-12.629			-2.105
277400.000			-12.628			-2.105
277501.000			-12.629			-2.105
277600.000			-12.628			-2.105
277701.000			-12.628			-2.105
277802.000			-12.628			-2.105
277901.000			-12.628			-2.105
278000.000			-12.628			-2.105
278101.000			-12.627			-2.105
278200.000			-12.627			-2.105
278300.000			-12.628			-2.105
278401.000			-12.627			-2.104
278500.000			-12.626			-2.104
278600.000			-12.626			-2.104
278702.000			-12.626			-2.104
278801.000			-12.626			-2.104
278901.000			-12.628			-2.105
279000.000			-12.627			-2.105
279100.000			-12.627			-2.104
279201.000			-12.626			-2.104
279300.000			-12.626			-2.104
279400.000			-12.626			-2.104
279501.000			-12.626			-2.104
279601.000			-12.625			-2.104
279701.000			-12.625			-2.104
279802.000			-12.625			-2.104
279900.000			-12.625			-2.104
280000.000			-12.626			-2.104
280101.000			-12.626			-2.104
280200.000			-12.625			-2.104
280300.000			-12.624			-2.104
280401.000			-12.624			-2.104
280500.000			-12.625			-2.104
280601.000			-12.625			-2.104
280702.000			-12.625			-2.104
280800.000			-12.623			-2.104
280900.000			-12.623			-2.104
281001.000			-12.624			-2.104
281100.000			-12.623			-2.104
281200.000			-12.624			-2.104
281301.000			-12.624			-2.104
281400.000			-12.624			-2.104
281501.000			-12.623			-2.104
281602.000			-12.624			-2.104
281700.000			-12.624			-2.104
281800.000			-12.624			-2.104
281900.000			-12.623			-2.104
282000.000			-12.624			-2.104
282101.000			-12.625			-2.104
282200.000			-12.623			-2.104
282300.000			-12.623			-2.104
282402.000			-12.623			-2.104
282501.000			-12.622			-2.104
282601.000			-12.621			-2.104
282701.000			-12.622			-2.104
282800.000			-12.623			-2.104
282900.000			-12.623			-2.104
283001.000			-12.622			-2.104
283100.000			-12.621			-2.104
283200.000			-12.623			-2.104
283302.000			-12.623			-2.104
283401.000			-12.623			-2.104
283501.000			-12.622			-2.104
283601.000			-12.622			-2.104
283700.000			-12.623			-2.104
283800.000			-12.622			-2.104
283901.000			-12.622			-2.104
284000.000			-12.621			-2.104
284100.000			-12.621			-2.103
284202.000			-12.621			-2.104
284301.000			-12.622			-2.104
284401.000			-12.620			-2.103
284501.000			-12.620			-2.103
284600.000			-12.621			-2.104
284700.000			-12.620			-2.103
284801.000			-12.621			-2.103
284900.000			-12.621			-2.104
285000.000			-12.621			-2.104
285102.000			-12.621			-2.104
285201.000			-12.621			-2.103
285302.000			-12.621			-2.104
285400.000			-12.622			-2.104
285500.000			-12.621			-2.104
285601.000			-12.621			-2.104
285700.000			-12.620			-2.103
285800.000			-12.620			-2.103
285901.000			-12.619			-2.103
286000.000			-12.620			-2.103
286101.000			-12.621			-2.103
286202.000			-12.620			-2.103
286300.000			-12.620			-2.103
286400.000			-12.620			-2.103
286501.000			-12.619			-2.103
286600.000			-12.619			-2.103
286700.000			-12.619			-2.103
286801.000			-12.619			-2.103
286900.000			-12.620			-2.103
287000.000			-12.620			-2.103
287102.000			-12.619			-2.103
287201.000			-12.618			-2.103
287300.000			-12.619			-2.103
287401.000			-12.620			-2.103
287500.000			-12.618			-2.103
287600.000			-12.618			-2.103
287701.000			-12.619			-2.103
287800.000			-12.618			-2.103
287900.000			-12.617			-2.103
288002.000			-12.618			-2.103
288101.000			-12.618			-2.103
288202.000			-12.618			-2.103
288300.000			-12.618			-2.103
288400.000			-12.618			-2.103
288501.000			-12.617			-2.103
288600.000			-12.617			-2.103
288700.000			-12.616			-2.103
288801.000			-12.617			-2.103
288900.000			-12.618			-2.103
289001.000			-12.617			-2.103
289102.000			-12.617			-2.103
289200.000			-12.617			-2.103
289300.000			-12.617			-2.103
289401.000			-12.616			-2.103
289500.000			-12.616			-2.103
289600.000			-12.616			-2.103
289701.000			-12.616			-2.103
289800.000			-12.615			-2.102
289900.000			-12.616			-2.103
290002.000			-12.616			-2.103
290101.000			-12.615			-2.102
290200.000			-12.616			-2.103
290301.000			-12.615			-2.103
290400.000			-12.614			-2.102
290500.000			-12.614			-2.102
290601.000			-12.614			-2.102
290700.000			-12.615			-2.102
290800.000			-12.615			-2.103
290902.000			-12.615			-2.103
291001.000			-12.615			-2.102
291100.000			-12.614			-2.102
291201.000			-12.614			-2.102
291300.000			-12.614			-2.102
291400.000			-12.614			-2.102
291500.000			-12.614			-2.102
291600.000			-12.613			-2.102
291701.000			-12.614			-2.102
291801.000			-12.614			-2.102
291901.000			-12.613			-2.102
292001.000			-12.613			-2.102
292100.000			-12.614			-2.102
292200.000			-12.613			-2.102
292301.000			-12.612			-2.102
292400.000			-12.613			-2.102
292500.000			-12.614			-2.102
292601.000			-12.613			-2.102
292701.000			-12.613			-2.102
292801.000			-12.614			-2.102
292901.000			-12.613			-2.102
293000.000			-12.613			-2.102
293100.000			-12.612			-2.102
293201.000			-12.612			-2.102
293300.000			-12.612			-2.102
293400.000			-12.613			-2.102
293501.000			-12.612			-2.102
293601.000			-12.612			-2.102
293701.000			-12.612			-2.102
293801.000			-12.612			-2.102
293900.000			-12.611			-2.102
294000.000			-12.611			-2.102
294101.000			-12.611			-2.102
294200.000			-12.612			-2.102
294300.000			-12.611			-2.102
294401.000			-12.610			-2.102
294501.000			-12.610			-2.102
294602.000			-12.610			-2.102
294701.000			-12.610			-2.102
294800.000			-12.611			-2.102
294901.000			-12.611			-2.102
295000.000			-12.611			-2.102
295100.000			-12.610			-2.102
295201.000			-12.609			-2.102
295300.000			-12.609			-2.101
295400.000			-12.609			-2.101
295502.000			-12.609			-2.102
295601.000			-12.610			-2.102
295700.000			-12.611			-2.102
295801.000			-12.610			-2.102
295900.000			-12.608			-2.101
296000.000			-12.609			-2.101
296101.000			-12.610			-2.102
296200.000			-12.609			-2.102
296300.000			-12.609			-2.102
296402.000			-12.609			-2.102
296501.000			-12.609			-2.101
296600.000			-12.608			-2.101
296701.000			-12.608			-2.101
296800.000			-12.609			-2.101
296900.000			-12.610			-2.102
297001.000			-12.608			-2.101
297100.000			-12.607			-2.101
297200.000			-12.607			-2.101
297302.000			-12.608			-2.101
297401.000			-12.608			-2.101
297501.000			-12.607			-2.101
297601.000			-12.607			-2.101
297700.000			-12.606			-2.101
297800.000			-12.607			-2.101
297900.000			-12.607			-2.101
298000.000			-12.607			-2.101
298101.000			-12.607			-2.101
298200.000			-12.606			-2.101
298301.000			-12.606			-2.101
298402.000			-12.607			-2.101
298501.000			-12.607			-2.101
298600.000			-12.607			-2.101
298701.000			-12.607			-2.101
298800.000			-12.607			-2.101
298900.000			-12.606			-2.101
299001.000			-12.606			-2.101
299100.000			-12.606			-2.101
299200.000			-12.606			-2.101
299302.000			-12.606			-2.101
299401.000			-12.606			-2.101
299500.000			-12.606			-2.101
299601.000			-12.606			-2.101
299700.000			-12.605			-2.101
299800.000			-12.606			-2.101
299901.000			-12.606			-2.101
