# Acquired on 20/12/2023 12:12:31 
# SPIDER: Creep_5mm_07714532B-2
# CREEP MEASUREMENT

# time [ms]		force [N]		stiffness [N/mm]
0.000			-18.128			-3.626
101.000			-19.206			-3.841
201.000			-19.580			-3.916
301.000			-19.559			-3.912
401.000			-19.467			-3.893
500.000			-19.392			-3.878
600.000			-19.281			-3.856
701.000			-19.236			-3.847
800.000			-19.196			-3.839
901.000			-19.159			-3.832
1002.000			-19.126			-3.825
1100.000			-19.097			-3.819
1200.000			-19.069			-3.814
1301.000			-19.043			-3.809
1400.000			-18.997			-3.799
1500.000			-18.976			-3.795
1602.000			-18.956			-3.791
1701.000			-18.937			-3.787
1802.000			-18.919			-3.784
1900.000			-18.902			-3.780
2000.000			-18.886			-3.777
2101.000			-18.854			-3.771
2200.000			-18.840			-3.768
2300.000			-18.827			-3.765
2402.000			-18.815			-3.763
2501.000			-18.802			-3.760
2600.000			-18.790			-3.758
2701.000			-18.777			-3.755
2800.000			-18.754			-3.751
2900.000			-18.744			-3.749
3001.000			-18.734			-3.747
3100.000			-18.724			-3.745
3201.000			-18.713			-3.743
3302.000			-18.703			-3.741
3400.000			-18.695			-3.739
3500.000			-18.685			-3.737
3601.000			-18.667			-3.733
3700.000			-18.659			-3.732
3800.000			-18.652			-3.730
3901.000			-18.644			-3.729
4001.000			-18.635			-3.727
4101.000			-18.627			-3.725
4201.000			-18.619			-3.724
4300.000			-18.606			-3.721
4400.000			-18.598			-3.720
4501.000			-18.590			-3.718
4600.000			-18.583			-3.717
4700.000			-18.578			-3.716
4802.000			-18.572			-3.714
4901.000			-18.565			-3.713
5000.000			-18.553			-3.711
5100.000			-18.547			-3.709
5200.000			-18.540			-3.708
5301.000			-18.534			-3.707
5400.000			-18.530			-3.706
5500.000			-18.524			-3.705
5602.000			-18.518			-3.704
5701.000			-18.512			-3.702
5800.000			-18.501			-3.700
5901.000			-18.496			-3.699
6000.000			-18.490			-3.698
6100.000			-18.486			-3.697
6201.000			-18.480			-3.696
6301.000			-18.476			-3.695
6401.000			-18.471			-3.694
6501.000			-18.461			-3.692
6600.000			-18.456			-3.691
6700.000			-18.452			-3.690
6801.000			-18.447			-3.689
6900.000			-18.444			-3.689
7000.000			-18.438			-3.688
7102.000			-18.434			-3.687
7201.000			-18.425			-3.685
7300.000			-18.421			-3.684
7401.000			-18.418			-3.684
7500.000			-18.414			-3.683
7600.000			-18.408			-3.682
7701.000			-18.404			-3.681
7800.000			-18.401			-3.680
7901.000			-18.398			-3.680
8002.000			-18.390			-3.678
8100.000			-18.385			-3.677
8200.000			-18.381			-3.676
8300.000			-18.377			-3.675
8400.000			-18.375			-3.675
8501.000			-18.370			-3.674
8601.000			-18.367			-3.673
8701.000			-18.360			-3.672
8802.000			-18.357			-3.671
8900.000			-18.353			-3.671
9000.000			-18.349			-3.670
9101.000			-18.345			-3.669
9200.000			-18.343			-3.669
9300.000			-18.340			-3.668
9402.000			-18.333			-3.667
9501.000			-18.329			-3.666
9600.000			-18.326			-3.665
9701.000			-18.324			-3.665
9800.000			-18.320			-3.664
9900.000			-18.318			-3.664
10001.000			-18.315			-3.663
10100.000			-18.311			-3.662
10201.000			-18.305			-3.661
10302.000			-18.301			-3.660
10400.000			-18.298			-3.660
10500.000			-18.296			-3.659
10601.000			-18.292			-3.658
10700.000			-18.289			-3.658
10800.000			-18.286			-3.657
10901.000			-18.282			-3.656
11001.000			-18.278			-3.656
11101.000			-18.275			-3.655
11201.000			-18.272			-3.654
11300.000			-18.269			-3.654
11400.000			-18.267			-3.653
11500.000			-18.264			-3.653
11600.000			-18.261			-3.652
11701.000			-18.256			-3.651
11801.000			-18.255			-3.651
11901.000			-18.252			-3.650
12001.000			-18.249			-3.650
12100.000			-18.247			-3.649
12200.000			-18.244			-3.649
12301.000			-18.241			-3.648
12400.000			-18.236			-3.647
12500.000			-18.234			-3.647
12602.000			-18.231			-3.646
12701.000			-18.229			-3.646
12800.000			-18.227			-3.645
12901.000			-18.225			-3.645
13000.000			-18.222			-3.644
13100.000			-18.218			-3.644
13201.000			-18.215			-3.643
13301.000			-18.214			-3.643
13401.000			-18.212			-3.642
13501.000			-18.210			-3.642
13600.000			-18.206			-3.641
13700.000			-18.204			-3.641
13801.000			-18.202			-3.640
13900.000			-18.197			-3.639
14000.000			-18.195			-3.639
14102.000			-18.192			-3.638
14201.000			-18.190			-3.638
14300.000			-18.189			-3.638
14401.000			-18.187			-3.637
14500.000			-18.184			-3.637
14600.000			-18.181			-3.636
14700.000			-18.178			-3.636
14800.000			-18.176			-3.635
14902.000			-18.174			-3.635
15001.000			-18.172			-3.634
15100.000			-18.170			-3.634
15201.000			-18.168			-3.634
15300.000			-18.167			-3.633
15400.000			-18.161			-3.632
15501.000			-18.159			-3.632
15600.000			-18.157			-3.631
15701.000			-18.156			-3.631
15802.000			-18.154			-3.631
15900.000			-18.151			-3.630
16000.000			-18.150			-3.630
16101.000			-18.146			-3.629
16200.000			-18.145			-3.629
16300.000			-18.144			-3.629
16401.000			-18.141			-3.628
16501.000			-18.139			-3.628
16601.000			-18.136			-3.627
16701.000			-18.135			-3.627
16800.000			-18.131			-3.626
16900.000			-18.129			-3.626
17001.000			-18.129			-3.626
17100.000			-18.126			-3.625
17200.000			-18.124			-3.625
17302.000			-18.122			-3.624
17401.000			-18.121			-3.624
17500.000			-18.119			-3.624
17601.000			-18.115			-3.623
17700.000			-18.114			-3.623
17800.000			-18.111			-3.622
17900.000			-18.110			-3.622
18000.000			-18.109			-3.622
18102.000			-18.107			-3.621
18201.000			-18.105			-3.621
18300.000			-18.103			-3.621
18401.000			-18.100			-3.620
18500.000			-18.099			-3.620
18600.000			-18.097			-3.619
18701.000			-18.095			-3.619
18800.000			-18.094			-3.619
18901.000			-18.093			-3.619
19002.000			-18.089			-3.618
19100.000			-18.088			-3.618
19200.000			-18.085			-3.617
19301.000			-18.084			-3.617
19400.000			-18.084			-3.617
19500.000			-18.082			-3.616
19601.000			-18.080			-3.616
19701.000			-18.078			-3.616
19801.000			-18.075			-3.615
19901.000			-18.073			-3.615
20000.000			-18.072			-3.614
20100.000			-18.070			-3.614
20201.000			-18.068			-3.614
20300.000			-18.067			-3.613
20400.000			-18.066			-3.613
20502.000			-18.062			-3.612
20601.000			-18.061			-3.612
20700.000			-18.060			-3.612
20801.000			-18.058			-3.612
20900.000			-18.056			-3.611
21000.000			-18.055			-3.611
21100.000			-18.053			-3.611
21201.000			-18.051			-3.610
21302.000			-18.049			-3.610
21400.000			-18.048			-3.610
21500.000			-18.046			-3.609
21601.000			-18.046			-3.609
21700.000			-18.044			-3.609
21800.000			-18.042			-3.608
21901.000			-18.041			-3.608
22001.000			-18.038			-3.608
22101.000			-18.036			-3.607
22201.000			-18.035			-3.607
22300.000			-18.034			-3.607
22400.000			-18.034			-3.607
22501.000			-18.031			-3.606
22600.000			-18.031			-3.606
22700.000			-18.027			-3.605
22802.000			-18.026			-3.605
22901.000			-18.025			-3.605
23000.000			-18.024			-3.605
23101.000			-18.022			-3.604
23200.000			-18.020			-3.604
23300.000			-18.020			-3.604
23401.000			-18.018			-3.604
23501.000			-18.014			-3.603
23601.000			-18.014			-3.603
23701.000			-18.012			-3.602
23800.000			-18.011			-3.602
23900.000			-18.010			-3.602
24001.000			-18.009			-3.602
24100.000			-18.007			-3.601
24200.000			-18.004			-3.601
24302.000			-18.003			-3.601
24401.000			-18.002			-3.600
24501.000			-18.002			-3.600
24600.000			-18.001			-3.600
24700.000			-18.000			-3.600
24801.000			-17.999			-3.600
24900.000			-17.995			-3.599
25000.000			-17.993			-3.599
25102.000			-17.991			-3.598
25201.000			-17.991			-3.598
25300.000			-17.991			-3.598
25401.000			-17.990			-3.598
25500.000			-17.987			-3.597
25600.000			-17.987			-3.597
25701.000			-17.984			-3.597
25800.000			-17.982			-3.596
25900.000			-17.980			-3.596
26002.000			-17.980			-3.596
26101.000			-17.980			-3.596
26200.000			-17.978			-3.596
26301.000			-17.977			-3.595
26400.000			-17.975			-3.595
26500.000			-17.974			-3.595
26601.000			-17.973			-3.595
26700.000			-17.971			-3.594
26801.000			-17.969			-3.594
26902.000			-17.968			-3.594
27000.000			-17.968			-3.594
27100.000			-17.966			-3.593
27201.000			-17.965			-3.593
27300.000			-17.964			-3.593
27400.000			-17.962			-3.592
27500.000			-17.961			-3.592
27601.000			-17.960			-3.592
27702.000			-17.959			-3.592
27801.000			-17.957			-3.591
27900.000			-17.955			-3.591
28001.000			-17.955			-3.591
28100.000			-17.954			-3.591
28200.000			-17.952			-3.590
28301.000			-17.951			-3.590
28401.000			-17.949			-3.590
28501.000			-17.950			-3.590
28602.000			-17.945			-3.589
28700.000			-17.945			-3.589
28800.000			-17.944			-3.589
28901.000			-17.943			-3.589
29000.000			-17.942			-3.588
29100.000			-17.941			-3.588
29201.000			-17.940			-3.588
29301.000			-17.938			-3.588
29401.000			-17.936			-3.587
29501.000			-17.935			-3.587
29600.000			-17.935			-3.587
29700.000			-17.934			-3.587
29801.000			-17.932			-3.586
29900.000			-17.931			-3.586
30000.000			-17.931			-3.586
30102.000			-17.929			-3.586
30201.000			-17.928			-3.586
30300.000			-17.927			-3.585
30401.000			-17.926			-3.585
30500.000			-17.924			-3.585
30600.000			-17.924			-3.585
30700.000			-17.923			-3.585
30800.000			-17.919			-3.584
30902.000			-17.920			-3.584
31001.000			-17.919			-3.584
31100.000			-17.917			-3.583
31201.000			-17.916			-3.583
31300.000			-17.916			-3.583
31400.000			-17.914			-3.583
31501.000			-17.913			-3.583
31600.000			-17.912			-3.582
31701.000			-17.911			-3.582
31802.000			-17.909			-3.582
31900.000			-17.909			-3.582
32000.000			-17.907			-3.581
32101.000			-17.906			-3.581
32200.000			-17.906			-3.581
32300.000			-17.904			-3.581
32401.000			-17.904			-3.581
32501.000			-17.902			-3.580
32601.000			-17.902			-3.580
32701.000			-17.900			-3.580
32800.000			-17.899			-3.580
32900.000			-17.898			-3.580
33001.000			-17.896			-3.579
33100.000			-17.895			-3.579
33200.000			-17.895			-3.579
33302.000			-17.893			-3.579
33401.000			-17.893			-3.579
33500.000			-17.892			-3.578
33601.000			-17.891			-3.578
33700.000			-17.889			-3.578
33800.000			-17.889			-3.578
33900.000			-17.887			-3.577
34000.000			-17.886			-3.577
34102.000			-17.885			-3.577
34201.000			-17.885			-3.577
34300.000			-17.883			-3.577
34401.000			-17.882			-3.576
34500.000			-17.881			-3.576
34600.000			-17.880			-3.576
34701.000			-17.880			-3.576
34800.000			-17.878			-3.576
34901.000			-17.878			-3.576
35002.000			-17.877			-3.575
35100.000			-17.876			-3.575
35200.000			-17.875			-3.575
35301.000			-17.872			-3.574
35400.000			-17.872			-3.574
35500.000			-17.872			-3.574
35601.000			-17.871			-3.574
35701.000			-17.870			-3.574
35801.000			-17.869			-3.574
35902.000			-17.868			-3.574
36000.000			-17.866			-3.573
36100.000			-17.866			-3.573
36201.000			-17.865			-3.573
36300.000			-17.863			-3.573
36400.000			-17.862			-3.572
36501.000			-17.862			-3.572
36601.000			-17.861			-3.572
36701.000			-17.859			-3.572
36801.000			-17.857			-3.571
36900.000			-17.857			-3.571
37000.000			-17.857			-3.571
37100.000			-17.856			-3.571
37200.000			-17.854			-3.571
37301.000			-17.854			-3.571
37401.000			-17.853			-3.571
37501.000			-17.852			-3.570
37601.000			-17.852			-3.570
37700.000			-17.851			-3.570
37800.000			-17.849			-3.570
37901.000			-17.848			-3.570
38000.000			-17.847			-3.569
38100.000			-17.847			-3.569
38202.000			-17.846			-3.569
38301.000			-17.846			-3.569
38400.000			-17.845			-3.569
38501.000			-17.843			-3.569
38600.000			-17.843			-3.569
38700.000			-17.842			-3.568
38801.000			-17.841			-3.568
38900.000			-17.839			-3.568
39001.000			-17.838			-3.568
39102.000			-17.838			-3.568
39200.000			-17.836			-3.567
39300.000			-17.835			-3.567
39401.000			-17.834			-3.567
39500.000			-17.834			-3.567
39600.000			-17.833			-3.567
39701.000			-17.832			-3.566
39801.000			-17.831			-3.566
39901.000			-17.830			-3.566
40001.000			-17.830			-3.566
40100.000			-17.829			-3.566
40200.000			-17.827			-3.565
40300.000			-17.826			-3.565
40400.000			-17.826			-3.565
40501.000			-17.824			-3.565
40601.000			-17.824			-3.565
40701.000			-17.824			-3.565
40801.000			-17.823			-3.565
40900.000			-17.822			-3.564
41000.000			-17.821			-3.564
41101.000			-17.819			-3.564
41200.000			-17.818			-3.564
41300.000			-17.817			-3.563
41402.000			-17.817			-3.563
41501.000			-17.817			-3.563
41600.000			-17.815			-3.563
41701.000			-17.814			-3.563
41800.000			-17.813			-3.563
41900.000			-17.814			-3.563
42001.000			-17.813			-3.563
42100.000			-17.811			-3.562
42201.000			-17.810			-3.562
42302.000			-17.809			-3.562
42400.000			-17.809			-3.562
42500.000			-17.808			-3.562
42601.000			-17.807			-3.561
42700.000			-17.806			-3.561
42800.000			-17.805			-3.561
42901.000			-17.805			-3.561
43001.000			-17.804			-3.561
43101.000			-17.803			-3.561
43201.000			-17.802			-3.560
43300.000			-17.800			-3.560
43400.000			-17.800			-3.560
43500.000			-17.800			-3.560
43600.000			-17.799			-3.560
43701.000			-17.799			-3.560
43801.000			-17.798			-3.560
43901.000			-17.797			-3.559
44001.000			-17.796			-3.559
44100.000			-17.794			-3.559
44200.000			-17.794			-3.559
44301.000			-17.793			-3.559
44400.000			-17.793			-3.559
44500.000			-17.792			-3.558
44602.000			-17.791			-3.558
44701.000			-17.790			-3.558
44800.000			-17.789			-3.558
44901.000			-17.788			-3.558
45000.000			-17.788			-3.558
45100.000			-17.787			-3.557
45201.000			-17.785			-3.557
45300.000			-17.786			-3.557
45400.000			-17.785			-3.557
45502.000			-17.784			-3.557
45601.000			-17.782			-3.556
45700.000			-17.781			-3.556
45801.000			-17.781			-3.556
45900.000			-17.780			-3.556
46000.000			-17.780			-3.556
46101.000			-17.779			-3.556
46200.000			-17.779			-3.556
46301.000			-17.777			-3.555
46402.000			-17.777			-3.555
46500.000			-17.776			-3.555
46600.000			-17.776			-3.555
46700.000			-17.775			-3.555
46800.000			-17.774			-3.555
46901.000			-17.773			-3.555
47000.000			-17.771			-3.554
47101.000			-17.771			-3.554
47202.000			-17.770			-3.554
47300.000			-17.770			-3.554
47400.000			-17.770			-3.554
47501.000			-17.769			-3.554
47600.000			-17.768			-3.554
47700.000			-17.768			-3.554
47801.000			-17.766			-3.553
47901.000			-17.764			-3.553
48001.000			-17.765			-3.553
48101.000			-17.765			-3.553
48200.000			-17.763			-3.553
48300.000			-17.762			-3.552
48401.000			-17.762			-3.552
48500.000			-17.760			-3.552
48600.000			-17.760			-3.552
48701.000			-17.760			-3.552
48801.000			-17.759			-3.552
48901.000			-17.757			-3.551
49001.000			-17.757			-3.551
49100.000			-17.757			-3.551
49200.000			-17.755			-3.551
49301.000			-17.754			-3.551
49400.000			-17.754			-3.551
49500.000			-17.754			-3.551
49602.000			-17.753			-3.551
49701.000			-17.753			-3.551
49800.000			-17.752			-3.550
49900.000			-17.751			-3.550
50000.000			-17.750			-3.550
50101.000			-17.750			-3.550
50200.000			-17.749			-3.550
50300.000			-17.749			-3.550
50402.000			-17.748			-3.550
50501.000			-17.748			-3.550
50601.000			-17.747			-3.549
50701.000			-17.746			-3.549
50800.000			-17.744			-3.549
50900.000			-17.743			-3.549
51001.000			-17.742			-3.548
51100.000			-17.742			-3.548
51201.000			-17.742			-3.548
51302.000			-17.740			-3.548
51400.000			-17.740			-3.548
51500.000			-17.739			-3.548
51601.000			-17.739			-3.548
51700.000			-17.737			-3.547
51800.000			-17.738			-3.548
51901.000			-17.737			-3.547
52001.000			-17.737			-3.547
52101.000			-17.736			-3.547
52201.000			-17.735			-3.547
52300.000			-17.734			-3.547
52400.000			-17.734			-3.547
52501.000			-17.734			-3.547
52600.000			-17.733			-3.547
52700.000			-17.732			-3.546
52802.000			-17.732			-3.546
52901.000			-17.730			-3.546
53000.000			-17.730			-3.546
53100.000			-17.729			-3.546
53200.000			-17.728			-3.546
53301.000			-17.727			-3.545
53400.000			-17.726			-3.545
53500.000			-17.726			-3.545
53602.000			-17.725			-3.545
53701.000			-17.725			-3.545
53800.000			-17.724			-3.545
53901.000			-17.724			-3.545
54000.000			-17.723			-3.545
54100.000			-17.723			-3.545
54201.000			-17.724			-3.545
54300.000			-17.723			-3.545
54401.000			-17.720			-3.544
54502.000			-17.720			-3.544
54600.000			-17.719			-3.544
54700.000			-17.719			-3.544
54801.000			-17.717			-3.543
54900.000			-17.716			-3.543
55000.000			-17.716			-3.543
55101.000			-17.715			-3.543
55201.000			-17.714			-3.543
55301.000			-17.714			-3.543
55401.000			-17.714			-3.543
55500.000			-17.713			-3.543
55600.000			-17.713			-3.543
55701.000			-17.713			-3.543
55800.000			-17.712			-3.542
55900.000			-17.710			-3.542
56002.000			-17.709			-3.542
56101.000			-17.709			-3.542
56200.000			-17.708			-3.542
56300.000			-17.709			-3.542
56400.000			-17.709			-3.542
56501.000			-17.707			-3.541
56600.000			-17.706			-3.541
56700.000			-17.706			-3.541
56801.000			-17.706			-3.541
56901.000			-17.704			-3.541
57001.000			-17.705			-3.541
57101.000			-17.703			-3.541
57200.000			-17.702			-3.540
57300.000			-17.701			-3.540
57401.000			-17.701			-3.540
57500.000			-17.700			-3.540
57600.000			-17.699			-3.540
57702.000			-17.699			-3.540
57801.000			-17.699			-3.540
57900.000			-17.698			-3.540
58001.000			-17.697			-3.539
58100.000			-17.698			-3.540
58200.000			-17.696			-3.539
58301.000			-17.695			-3.539
58400.000			-17.695			-3.539
58501.000			-17.695			-3.539
58602.000			-17.694			-3.539
58700.000			-17.695			-3.539
58800.000			-17.693			-3.539
58901.000			-17.692			-3.538
59000.000			-17.692			-3.538
59100.000			-17.691			-3.538
59201.000			-17.690			-3.538
59301.000			-17.689			-3.538
59402.000			-17.689			-3.538
59501.000			-17.689			-3.538
59600.000			-17.688			-3.538
59701.000			-17.687			-3.537
59800.000			-17.687			-3.537
59900.000			-17.685			-3.537
60001.000			-17.685			-3.537
60100.000			-17.685			-3.537
60201.000			-17.685			-3.537
60302.000			-17.684			-3.537
60400.000			-17.683			-3.537
60500.000			-17.683			-3.537
60601.000			-17.682			-3.536
60700.000			-17.681			-3.536
60800.000			-17.680			-3.536
60901.000			-17.680			-3.536
61001.000			-17.679			-3.536
61101.000			-17.678			-3.536
61201.000			-17.679			-3.536
61300.000			-17.678			-3.536
61400.000			-17.678			-3.536
61501.000			-17.677			-3.535
61600.000			-17.677			-3.535
61700.000			-17.676			-3.535
61802.000			-17.675			-3.535
61901.000			-17.674			-3.535
62000.000			-17.674			-3.535
62101.000			-17.673			-3.535
62200.000			-17.674			-3.535
62300.000			-17.673			-3.535
62401.000			-17.671			-3.534
62500.000			-17.670			-3.534
62602.000			-17.671			-3.534
62701.000			-17.670			-3.534
62800.000			-17.670			-3.534
62901.000			-17.670			-3.534
63000.000			-17.668			-3.534
63100.000			-17.669			-3.534
63201.000			-17.667			-3.533
63300.000			-17.667			-3.533
63401.000			-17.666			-3.533
63502.000			-17.665			-3.533
63601.000			-17.665			-3.533
63700.000			-17.665			-3.533
63801.000			-17.664			-3.533
63900.000			-17.662			-3.532
64000.000			-17.663			-3.533
64101.000			-17.662			-3.532
64201.000			-17.663			-3.533
64301.000			-17.661			-3.532
64402.000			-17.661			-3.532
64500.000			-17.660			-3.532
64600.000			-17.658			-3.532
64701.000			-17.658			-3.532
64800.000			-17.658			-3.532
64900.000			-17.657			-3.531
65001.000			-17.657			-3.531
65101.000			-17.657			-3.531
65201.000			-17.657			-3.531
65301.000			-17.656			-3.531
65400.000			-17.655			-3.531
65500.000			-17.656			-3.531
65601.000			-17.655			-3.531
65700.000			-17.654			-3.531
65800.000			-17.653			-3.531
65902.000			-17.653			-3.531
66001.000			-17.653			-3.531
66101.000			-17.651			-3.530
66200.000			-17.651			-3.530
66300.000			-17.650			-3.530
66401.000			-17.649			-3.530
66500.000			-17.649			-3.530
66600.000			-17.650			-3.530
66702.000			-17.649			-3.530
66801.000			-17.648			-3.530
66900.000			-17.647			-3.529
67001.000			-17.647			-3.529
67100.000			-17.646			-3.529
67200.000			-17.647			-3.529
67301.000			-17.645			-3.529
67400.000			-17.644			-3.529
67500.000			-17.644			-3.529
67602.000			-17.644			-3.529
67701.000			-17.644			-3.529
67800.000			-17.643			-3.529
67901.000			-17.642			-3.528
68000.000			-17.642			-3.528
68100.000			-17.641			-3.528
68201.000			-17.641			-3.528
68300.000			-17.640			-3.528
68401.000			-17.640			-3.528
68502.000			-17.639			-3.528
68600.000			-17.638			-3.528
68700.000			-17.637			-3.527
68801.000			-17.637			-3.527
68900.000			-17.636			-3.527
69000.000			-17.635			-3.527
69100.000			-17.635			-3.527
69201.000			-17.634			-3.527
69302.000			-17.634			-3.527
69400.000			-17.635			-3.527
69500.000			-17.634			-3.527
69601.000			-17.633			-3.527
69700.000			-17.633			-3.527
69800.000			-17.632			-3.526
69901.000			-17.631			-3.526
70001.000			-17.631			-3.526
70101.000			-17.631			-3.526
70201.000			-17.629			-3.526
70300.000			-17.629			-3.526
70400.000			-17.630			-3.526
70501.000			-17.629			-3.526
70600.000			-17.628			-3.526
70700.000			-17.627			-3.525
70801.000			-17.627			-3.525
70901.000			-17.627			-3.525
71001.000			-17.626			-3.525
71101.000			-17.625			-3.525
71200.000			-17.624			-3.525
71300.000			-17.624			-3.525
71401.000			-17.623			-3.525
71500.000			-17.623			-3.525
71600.000			-17.622			-3.524
71702.000			-17.622			-3.524
71801.000			-17.622			-3.524
71900.000			-17.622			-3.524
72001.000			-17.621			-3.524
72100.000			-17.620			-3.524
72200.000			-17.620			-3.524
72300.000			-17.619			-3.524
72400.000			-17.619			-3.524
72502.000			-17.618			-3.524
72601.000			-17.617			-3.523
72700.000			-17.617			-3.523
72801.000			-17.617			-3.523
72900.000			-17.616			-3.523
73000.000			-17.616			-3.523
73101.000			-17.615			-3.523
73200.000			-17.616			-3.523
73301.000			-17.616			-3.523
73402.000			-17.615			-3.523
73500.000			-17.613			-3.523
73600.000			-17.612			-3.522
73701.000			-17.612			-3.522
73800.000			-17.612			-3.522
73900.000			-17.611			-3.522
74001.000			-17.611			-3.522
74101.000			-17.611			-3.522
74201.000			-17.610			-3.522
74301.000			-17.609			-3.522
74400.000			-17.609			-3.522
74500.000			-17.609			-3.522
74601.000			-17.609			-3.522
74700.000			-17.608			-3.522
74800.000			-17.607			-3.521
74902.000			-17.607			-3.521
75001.000			-17.607			-3.521
75100.000			-17.606			-3.521
75201.000			-17.605			-3.521
75300.000			-17.605			-3.521
75400.000			-17.605			-3.521
75500.000			-17.605			-3.521
75600.000			-17.604			-3.521
75702.000			-17.605			-3.521
75801.000			-17.603			-3.521
75900.000			-17.602			-3.520
76001.000			-17.602			-3.520
76100.000			-17.601			-3.520
76200.000			-17.601			-3.520
76301.000			-17.600			-3.520
76400.000			-17.601			-3.520
76501.000			-17.600			-3.520
76602.000			-17.598			-3.520
76701.000			-17.599			-3.520
76800.000			-17.599			-3.520
76901.000			-17.598			-3.520
77000.000			-17.597			-3.519
77100.000			-17.596			-3.519
77201.000			-17.596			-3.519
77300.000			-17.596			-3.519
77401.000			-17.596			-3.519
77502.000			-17.595			-3.519
77600.000			-17.594			-3.519
77700.000			-17.594			-3.519
77801.000			-17.593			-3.519
77900.000			-17.594			-3.519
78000.000			-17.593			-3.519
78101.000			-17.593			-3.519
78200.000			-17.593			-3.519
78301.000			-17.592			-3.518
78402.000			-17.591			-3.518
78500.000			-17.591			-3.518
78600.000			-17.591			-3.518
78700.000			-17.590			-3.518
78800.000			-17.589			-3.518
78901.000			-17.589			-3.518
79000.000			-17.588			-3.518
79101.000			-17.589			-3.518
79202.000			-17.588			-3.518
79301.000			-17.587			-3.517
79400.000			-17.586			-3.517
79501.000			-17.585			-3.517
79600.000			-17.585			-3.517
79700.000			-17.585			-3.517
79801.000			-17.584			-3.517
79900.000			-17.584			-3.517
80001.000			-17.584			-3.517
80102.000			-17.583			-3.517
80200.000			-17.583			-3.517
80300.000			-17.583			-3.517
80401.000			-17.583			-3.517
80500.000			-17.582			-3.516
80600.000			-17.581			-3.516
80701.000			-17.580			-3.516
80801.000			-17.579			-3.516
80901.000			-17.579			-3.516
81001.000			-17.578			-3.516
81100.000			-17.579			-3.516
81200.000			-17.580			-3.516
81301.000			-17.580			-3.516
81400.000			-17.578			-3.516
81500.000			-17.577			-3.515
81602.000			-17.575			-3.515
81701.000			-17.576			-3.515
81802.000			-17.576			-3.515
81900.000			-17.575			-3.515
82000.000			-17.575			-3.515
82101.000			-17.575			-3.515
82200.000			-17.575			-3.515
82300.000			-17.575			-3.515
82401.000			-17.572			-3.514
82501.000			-17.572			-3.514
82601.000			-17.573			-3.515
82701.000			-17.573			-3.515
82800.000			-17.572			-3.514
82900.000			-17.571			-3.514
83001.000			-17.570			-3.514
83100.000			-17.571			-3.514
83200.000			-17.571			-3.514
83302.000			-17.569			-3.514
83401.000			-17.568			-3.514
83500.000			-17.569			-3.514
83601.000			-17.568			-3.514
83700.000			-17.568			-3.514
83800.000			-17.567			-3.513
83901.000			-17.566			-3.513
84000.000			-17.565			-3.513
84101.000			-17.564			-3.513
84202.000			-17.564			-3.513
84301.000			-17.566			-3.513
84400.000			-17.565			-3.513
84501.000			-17.564			-3.513
84600.000			-17.563			-3.513
84700.000			-17.563			-3.513
84801.000			-17.563			-3.513
84900.000			-17.563			-3.513
85002.000			-17.563			-3.513
85101.000			-17.562			-3.512
85200.000			-17.561			-3.512
85301.000			-17.560			-3.512
85400.000			-17.561			-3.512
85500.000			-17.561			-3.512
85601.000			-17.560			-3.512
85700.000			-17.559			-3.512
85801.000			-17.559			-3.512
85902.000			-17.558			-3.512
86001.000			-17.557			-3.511
86100.000			-17.557			-3.511
86201.000			-17.557			-3.511
86300.000			-17.557			-3.511
86400.000			-17.556			-3.511
86501.000			-17.556			-3.511
86600.000			-17.556			-3.511
86701.000			-17.556			-3.511
86802.000			-17.556			-3.511
86900.000			-17.556			-3.511
87000.000			-17.554			-3.511
87101.000			-17.553			-3.511
87200.000			-17.553			-3.511
87300.000			-17.552			-3.510
87401.000			-17.552			-3.510
87501.000			-17.552			-3.510
87601.000			-17.551			-3.510
87701.000			-17.551			-3.510
87800.000			-17.551			-3.510
87900.000			-17.551			-3.510
88001.000			-17.551			-3.510
88100.000			-17.550			-3.510
88200.000			-17.549			-3.510
88302.000			-17.549			-3.510
88401.000			-17.549			-3.510
88501.000			-17.548			-3.510
88600.000			-17.547			-3.509
88700.000			-17.547			-3.509
88801.000			-17.547			-3.509
88900.000			-17.546			-3.509
89000.000			-17.545			-3.509
89101.000			-17.544			-3.509
89201.000			-17.544			-3.509
89301.000			-17.544			-3.509
89401.000			-17.543			-3.509
89500.000			-17.544			-3.509
89600.000			-17.543			-3.509
89701.000			-17.542			-3.508
89800.000			-17.543			-3.509
89900.000			-17.542			-3.508
90002.000			-17.542			-3.508
90101.000			-17.542			-3.508
90200.000			-17.540			-3.508
90301.000			-17.540			-3.508
90400.000			-17.540			-3.508
90500.000			-17.539			-3.508
90601.000			-17.539			-3.508
90700.000			-17.538			-3.508
90801.000			-17.538			-3.508
90902.000			-17.539			-3.508
91000.000			-17.538			-3.508
91100.000			-17.537			-3.507
91201.000			-17.537			-3.507
91300.000			-17.537			-3.507
91400.000			-17.536			-3.507
91500.000			-17.535			-3.507
91600.000			-17.534			-3.507
91702.000			-17.535			-3.507
91801.000			-17.536			-3.507
91900.000			-17.535			-3.507
92001.000			-17.534			-3.507
92100.000			-17.534			-3.507
92200.000			-17.533			-3.507
92301.000			-17.533			-3.507
92400.000			-17.532			-3.506
92501.000			-17.532			-3.506
92602.000			-17.531			-3.506
92700.000			-17.532			-3.506
92800.000			-17.531			-3.506
92901.000			-17.531			-3.506
93000.000			-17.532			-3.506
93100.000			-17.530			-3.506
93201.000			-17.530			-3.506
93301.000			-17.529			-3.506
93401.000			-17.531			-3.506
93501.000			-17.529			-3.506
93600.000			-17.528			-3.506
93700.000			-17.527			-3.505
93801.000			-17.527			-3.505
93900.000			-17.527			-3.505
94000.000			-17.526			-3.505
94102.000			-17.526			-3.505
94201.000			-17.526			-3.505
94300.000			-17.524			-3.505
94401.000			-17.523			-3.505
94500.000			-17.524			-3.505
94600.000			-17.525			-3.505
94700.000			-17.524			-3.505
94800.000			-17.524			-3.505
94902.000			-17.523			-3.505
95001.000			-17.522			-3.504
95100.000			-17.522			-3.504
95201.000			-17.521			-3.504
95300.000			-17.521			-3.504
95400.000			-17.521			-3.504
95501.000			-17.521			-3.504
95600.000			-17.520			-3.504
95701.000			-17.519			-3.504
95802.000			-17.519			-3.504
95901.000			-17.519			-3.504
96000.000			-17.519			-3.504
96101.000			-17.518			-3.504
96200.000			-17.518			-3.504
96300.000			-17.517			-3.503
96401.000			-17.518			-3.504
96500.000			-17.517			-3.503
96601.000			-17.517			-3.503
96702.000			-17.516			-3.503
96800.000			-17.515			-3.503
96900.000			-17.515			-3.503
97001.000			-17.515			-3.503
97100.000			-17.515			-3.503
97200.000			-17.514			-3.503
97301.000			-17.514			-3.503
97401.000			-17.514			-3.503
97501.000			-17.513			-3.503
97601.000			-17.512			-3.502
97700.000			-17.512			-3.502
97800.000			-17.511			-3.502
97900.000			-17.511			-3.502
98000.000			-17.510			-3.502
98101.000			-17.511			-3.502
98201.000			-17.511			-3.502
98301.000			-17.510			-3.502
98402.000			-17.509			-3.502
98500.000			-17.510			-3.502
98600.000			-17.509			-3.502
98701.000			-17.508			-3.502
98800.000			-17.508			-3.502
98900.000			-17.508			-3.502
99001.000			-17.508			-3.502
99101.000			-17.507			-3.501
99201.000			-17.507			-3.501
99301.000			-17.506			-3.501
99400.000			-17.506			-3.501
99500.000			-17.505			-3.501
99601.000			-17.505			-3.501
99700.000			-17.505			-3.501
99800.000			-17.505			-3.501
99902.000			-17.505			-3.501
100001.000			-17.502			-3.500
100100.000			-17.503			-3.501
100201.000			-17.503			-3.501
100300.000			-17.502			-3.500
100400.000			-17.501			-3.500
100501.000			-17.501			-3.500
100600.000			-17.500			-3.500
100701.000			-17.500			-3.500
100802.000			-17.500			-3.500
100901.000			-17.501			-3.500
101000.000			-17.500			-3.500
101100.000			-17.500			-3.500
101200.000			-17.499			-3.500
101301.000			-17.499			-3.500
101400.000			-17.500			-3.500
101500.000			-17.498			-3.500
101602.000			-17.497			-3.499
101701.000			-17.498			-3.500
101800.000			-17.498			-3.500
101901.000			-17.496			-3.499
102000.000			-17.496			-3.499
102100.000			-17.496			-3.499
102201.000			-17.495			-3.499
102300.000			-17.494			-3.499
102400.000			-17.494			-3.499
102502.000			-17.494			-3.499
102601.000			-17.493			-3.499
102700.000			-17.493			-3.499
102801.000			-17.494			-3.499
102900.000			-17.493			-3.499
103000.000			-17.494			-3.499
103101.000			-17.493			-3.499
103200.000			-17.492			-3.498
103301.000			-17.492			-3.498
103402.000			-17.492			-3.498
103500.000			-17.491			-3.498
103600.000			-17.490			-3.498
103701.000			-17.490			-3.498
103800.000			-17.489			-3.498
103900.000			-17.490			-3.498
104001.000			-17.489			-3.498
104101.000			-17.489			-3.498
104202.000			-17.488			-3.498
104301.000			-17.489			-3.498
104400.000			-17.488			-3.498
104501.000			-17.487			-3.497
104600.000			-17.487			-3.497
104700.000			-17.487			-3.497
104801.000			-17.487			-3.497
104900.000			-17.486			-3.497
105001.000			-17.486			-3.497
105102.000			-17.486			-3.497
105200.000			-17.485			-3.497
105300.000			-17.484			-3.497
105401.000			-17.484			-3.497
105500.000			-17.483			-3.497
105600.000			-17.484			-3.497
105701.000			-17.483			-3.497
105800.000			-17.484			-3.497
105901.000			-17.483			-3.497
106002.000			-17.482			-3.496
106100.000			-17.481			-3.496
106200.000			-17.481			-3.496
106301.000			-17.481			-3.496
106400.000			-17.481			-3.496
106500.000			-17.481			-3.496
106601.000			-17.480			-3.496
106701.000			-17.480			-3.496
106801.000			-17.480			-3.496
106902.000			-17.479			-3.496
107000.000			-17.479			-3.496
107100.000			-17.479			-3.496
107201.000			-17.479			-3.496
107300.000			-17.479			-3.496
107400.000			-17.477			-3.495
107500.000			-17.476			-3.495
107601.000			-17.476			-3.495
107702.000			-17.476			-3.495
107800.000			-17.475			-3.495
107900.000			-17.475			-3.495
108001.000			-17.476			-3.495
108100.000			-17.476			-3.495
108200.000			-17.476			-3.495
108301.000			-17.475			-3.495
108400.000			-17.474			-3.495
108501.000			-17.474			-3.495
108602.000			-17.474			-3.495
108700.000			-17.473			-3.495
108800.000			-17.473			-3.495
108901.000			-17.472			-3.494
109000.000			-17.471			-3.494
109100.000			-17.471			-3.494
109201.000			-17.471			-3.494
109301.000			-17.471			-3.494
109401.000			-17.470			-3.494
109502.000			-17.471			-3.494
109600.000			-17.471			-3.494
109700.000			-17.470			-3.494
109801.000			-17.470			-3.494
109900.000			-17.469			-3.494
110000.000			-17.469			-3.494
110101.000			-17.469			-3.494
110201.000			-17.468			-3.494
110301.000			-17.468			-3.494
110401.000			-17.468			-3.494
110500.000			-17.468			-3.494
110600.000			-17.468			-3.494
110700.000			-17.468			-3.494
110800.000			-17.466			-3.493
110901.000			-17.466			-3.493
111001.000			-17.465			-3.493
111101.000			-17.466			-3.493
111202.000			-17.466			-3.493
111300.000			-17.465			-3.493
111400.000			-17.464			-3.493
111501.000			-17.465			-3.493
111600.000			-17.464			-3.493
111700.000			-17.463			-3.493
111801.000			-17.463			-3.493
111901.000			-17.462			-3.492
112001.000			-17.462			-3.492
112101.000			-17.462			-3.492
112200.000			-17.462			-3.492
112300.000			-17.461			-3.492
112401.000			-17.462			-3.492
112500.000			-17.462			-3.492
112600.000			-17.461			-3.492
112702.000			-17.461			-3.492
112801.000			-17.460			-3.492
112900.000			-17.460			-3.492
113001.000			-17.460			-3.492
113100.000			-17.459			-3.492
113200.000			-17.459			-3.492
113301.000			-17.459			-3.492
113400.000			-17.458			-3.492
113500.000			-17.457			-3.491
113602.000			-17.457			-3.491
113701.000			-17.458			-3.492
113800.000			-17.458			-3.492
113900.000			-17.457			-3.491
114000.000			-17.457			-3.491
114101.000			-17.456			-3.491
114200.000			-17.455			-3.491
114300.000			-17.455			-3.491
114402.000			-17.456			-3.491
114501.000			-17.456			-3.491
114600.000			-17.456			-3.491
114701.000			-17.454			-3.491
114800.000			-17.454			-3.491
114900.000			-17.452			-3.490
115001.000			-17.453			-3.491
115100.000			-17.453			-3.491
115200.000			-17.453			-3.491
115302.000			-17.453			-3.491
115401.000			-17.453			-3.491
115500.000			-17.453			-3.491
115601.000			-17.452			-3.490
115700.000			-17.452			-3.490
115800.000			-17.451			-3.490
115901.000			-17.450			-3.490
116000.000			-17.448			-3.490
116101.000			-17.449			-3.490
116202.000			-17.449			-3.490
116301.000			-17.449			-3.490
116400.000			-17.449			-3.490
116501.000			-17.449			-3.490
116600.000			-17.448			-3.490
116700.000			-17.448			-3.490
116801.000			-17.448			-3.490
116900.000			-17.447			-3.489
117002.000			-17.448			-3.490
117101.000			-17.448			-3.490
117200.000			-17.447			-3.489
117301.000			-17.447			-3.489
117400.000			-17.447			-3.489
117500.000			-17.446			-3.489
117601.000			-17.446			-3.489
117700.000			-17.445			-3.489
117800.000			-17.445			-3.489
117902.000			-17.445			-3.489
118001.000			-17.444			-3.489
118100.000			-17.443			-3.489
118201.000			-17.443			-3.489
118300.000			-17.444			-3.489
118400.000			-17.443			-3.489
118501.000			-17.443			-3.489
118600.000			-17.442			-3.488
118701.000			-17.442			-3.488
118802.000			-17.442			-3.488
118901.000			-17.441			-3.488
119000.000			-17.441			-3.488
119101.000			-17.442			-3.488
119200.000			-17.441			-3.488
119300.000			-17.440			-3.488
119401.000			-17.440			-3.488
119500.000			-17.440			-3.488
119601.000			-17.439			-3.488
119702.000			-17.438			-3.488
119800.000			-17.438			-3.488
119900.000			-17.438			-3.488
120001.000			-17.438			-3.488
120100.000			-17.438			-3.488
120200.000			-17.437			-3.487
120300.000			-17.437			-3.487
120400.000			-17.436			-3.487
120502.000			-17.436			-3.487
120601.000			-17.436			-3.487
120700.000			-17.436			-3.487
120801.000			-17.435			-3.487
120900.000			-17.434			-3.487
121000.000			-17.435			-3.487
121101.000			-17.434			-3.487
121200.000			-17.433			-3.487
121301.000			-17.434			-3.487
121402.000			-17.433			-3.487
121500.000			-17.433			-3.487
121600.000			-17.433			-3.487
121701.000			-17.434			-3.487
121800.000			-17.432			-3.486
121900.000			-17.432			-3.486
122001.000			-17.432			-3.486
122101.000			-17.431			-3.486
122201.000			-17.431			-3.486
122301.000			-17.431			-3.486
122400.000			-17.430			-3.486
122500.000			-17.430			-3.486
122601.000			-17.429			-3.486
122700.000			-17.429			-3.486
122800.000			-17.430			-3.486
122902.000			-17.429			-3.486
123001.000			-17.428			-3.486
123100.000			-17.428			-3.486
123201.000			-17.427			-3.485
123300.000			-17.427			-3.485
123400.000			-17.428			-3.486
123500.000			-17.428			-3.486
123600.000			-17.426			-3.485
123701.000			-17.427			-3.485
123801.000			-17.427			-3.485
123901.000			-17.426			-3.485
124001.000			-17.426			-3.485
124100.000			-17.425			-3.485
124200.000			-17.424			-3.485
124301.000			-17.424			-3.485
124400.000			-17.425			-3.485
124500.000			-17.425			-3.485
124602.000			-17.424			-3.485
124701.000			-17.423			-3.485
124800.000			-17.423			-3.485
124901.000			-17.423			-3.485
125000.000			-17.423			-3.485
125100.000			-17.422			-3.484
125201.000			-17.422			-3.484
125300.000			-17.421			-3.484
125401.000			-17.420			-3.484
125502.000			-17.421			-3.484
125601.000			-17.422			-3.484
125700.000			-17.421			-3.484
125801.000			-17.420			-3.484
125900.000			-17.420			-3.484
126000.000			-17.419			-3.484
126101.000			-17.419			-3.484
126200.000			-17.419			-3.484
126301.000			-17.420			-3.484
126402.000			-17.419			-3.484
126500.000			-17.418			-3.484
126600.000			-17.418			-3.484
126700.000			-17.418			-3.484
126800.000			-17.418			-3.484
126901.000			-17.417			-3.483
127000.000			-17.417			-3.483
127100.000			-17.416			-3.483
127202.000			-17.416			-3.483
127301.000			-17.416			-3.483
127400.000			-17.416			-3.483
127501.000			-17.415			-3.483
127600.000			-17.415			-3.483
127700.000			-17.414			-3.483
127801.000			-17.414			-3.483
127900.000			-17.414			-3.483
128001.000			-17.414			-3.483
128102.000			-17.414			-3.483
128200.000			-17.413			-3.483
128300.000			-17.413			-3.483
128401.000			-17.412			-3.482
128500.000			-17.412			-3.482
128600.000			-17.412			-3.482
128701.000			-17.413			-3.483
128801.000			-17.412			-3.482
128901.000			-17.412			-3.482
129002.000			-17.412			-3.482
129100.000			-17.411			-3.482
129200.000			-17.411			-3.482
129301.000			-17.411			-3.482
129400.000			-17.410			-3.482
129500.000			-17.409			-3.482
129601.000			-17.409			-3.482
129701.000			-17.408			-3.482
129802.000			-17.409			-3.482
129900.000			-17.409			-3.482
130000.000			-17.409			-3.482
130101.000			-17.408			-3.482
130200.000			-17.407			-3.481
130300.000			-17.407			-3.481
130401.000			-17.407			-3.481
130501.000			-17.407			-3.481
130601.000			-17.408			-3.482
130701.000			-17.407			-3.481
130800.000			-17.406			-3.481
130900.000			-17.406			-3.481
131001.000			-17.406			-3.481
131100.000			-17.405			-3.481
131200.000			-17.404			-3.481
131302.000			-17.404			-3.481
131401.000			-17.405			-3.481
131501.000			-17.405			-3.481
131601.000			-17.403			-3.481
131700.000			-17.402			-3.480
131800.000			-17.402			-3.480
131901.000			-17.403			-3.481
132000.000			-17.403			-3.481
132100.000			-17.402			-3.480
132202.000			-17.402			-3.480
132301.000			-17.402			-3.480
132401.000			-17.401			-3.480
132501.000			-17.401			-3.480
132600.000			-17.401			-3.480
132700.000			-17.401			-3.480
132801.000			-17.401			-3.480
132900.000			-17.402			-3.480
133000.000			-17.401			-3.480
133102.000			-17.400			-3.480
133201.000			-17.400			-3.480
133302.000			-17.398			-3.480
133400.000			-17.398			-3.480
133500.000			-17.399			-3.480
133601.000			-17.399			-3.480
133700.000			-17.398			-3.480
133800.000			-17.398			-3.480
133901.000			-17.398			-3.480
134000.000			-17.397			-3.479
134101.000			-17.397			-3.479
134202.000			-17.396			-3.479
134300.000			-17.395			-3.479
134400.000			-17.396			-3.479
134501.000			-17.396			-3.479
134600.000			-17.394			-3.479
134700.000			-17.395			-3.479
134801.000			-17.394			-3.479
134900.000			-17.395			-3.479
135001.000			-17.394			-3.479
135102.000			-17.394			-3.479
135201.000			-17.394			-3.479
135300.000			-17.394			-3.479
135401.000			-17.392			-3.478
135500.000			-17.393			-3.479
135600.000			-17.393			-3.479
135701.000			-17.393			-3.479
135800.000			-17.393			-3.479
135900.000			-17.393			-3.479
136002.000			-17.392			-3.478
136101.000			-17.391			-3.478
136200.000			-17.392			-3.478
136300.000			-17.392			-3.478
136400.000			-17.391			-3.478
136501.000			-17.391			-3.478
136600.000			-17.391			-3.478
136700.000			-17.391			-3.478
136801.000			-17.390			-3.478
136901.000			-17.390			-3.478
137001.000			-17.389			-3.478
137101.000			-17.388			-3.478
137200.000			-17.388			-3.478
137300.000			-17.389			-3.478
137401.000			-17.388			-3.478
137500.000			-17.386			-3.477
137600.000			-17.387			-3.477
137701.000			-17.386			-3.477
137800.000			-17.386			-3.477
137901.000			-17.387			-3.477
138002.000			-17.387			-3.477
138101.000			-17.386			-3.477
138200.000			-17.385			-3.477
138301.000			-17.385			-3.477
138400.000			-17.385			-3.477
138500.000			-17.386			-3.477
138601.000			-17.386			-3.477
138700.000			-17.385			-3.477
138800.000			-17.384			-3.477
138902.000			-17.384			-3.477
139001.000			-17.383			-3.477
139100.000			-17.384			-3.477
139201.000			-17.383			-3.477
139300.000			-17.383			-3.477
139400.000			-17.383			-3.477
139500.000			-17.383			-3.477
139600.000			-17.382			-3.476
139701.000			-17.381			-3.476
139801.000			-17.380			-3.476
139901.000			-17.381			-3.476
140001.000			-17.381			-3.476
140100.000			-17.381			-3.476
140200.000			-17.380			-3.476
140301.000			-17.380			-3.476
140400.000			-17.380			-3.476
140500.000			-17.380			-3.476
140601.000			-17.379			-3.476
140701.000			-17.379			-3.476
140801.000			-17.378			-3.476
140902.000			-17.378			-3.476
141000.000			-17.377			-3.475
141100.000			-17.378			-3.476
141201.000			-17.379			-3.476
141300.000			-17.377			-3.475
141400.000			-17.377			-3.475
141501.000			-17.378			-3.476
141601.000			-17.379			-3.476
141701.000			-17.378			-3.476
141802.000			-17.376			-3.475
141900.000			-17.377			-3.475
142000.000			-17.377			-3.475
142101.000			-17.376			-3.475
142200.000			-17.375			-3.475
142300.000			-17.375			-3.475
142401.000			-17.374			-3.475
142500.000			-17.375			-3.475
142602.000			-17.375			-3.475
142701.000			-17.374			-3.475
142800.000			-17.373			-3.475
142901.000			-17.373			-3.475
143000.000			-17.373			-3.475
143100.000			-17.373			-3.475
143201.000			-17.373			-3.475
143300.000			-17.373			-3.475
143400.000			-17.372			-3.474
143502.000			-17.372			-3.474
143601.000			-17.372			-3.474
143701.000			-17.371			-3.474
143801.000			-17.372			-3.474
143900.000			-17.371			-3.474
144000.000			-17.371			-3.474
144101.000			-17.371			-3.474
144200.000			-17.371			-3.474
144300.000			-17.370			-3.474
144402.000			-17.369			-3.474
144501.000			-17.369			-3.474
144601.000			-17.370			-3.474
144701.000			-17.369			-3.474
144800.000			-17.369			-3.474
144900.000			-17.369			-3.474
145001.000			-17.368			-3.474
145100.000			-17.368			-3.474
145200.000			-17.367			-3.473
145301.000			-17.367			-3.473
145401.000			-17.367			-3.473
145501.000			-17.367			-3.473
145601.000			-17.367			-3.473
145700.000			-17.367			-3.473
145800.000			-17.366			-3.473
145900.000			-17.365			-3.473
146000.000			-17.366			-3.473
146101.000			-17.366			-3.473
146200.000			-17.365			-3.473
146300.000			-17.366			-3.473
146402.000			-17.365			-3.473
146501.000			-17.364			-3.473
146600.000			-17.364			-3.473
146701.000			-17.363			-3.473
146800.000			-17.364			-3.473
146900.000			-17.365			-3.473
147001.000			-17.365			-3.473
147100.000			-17.363			-3.473
147200.000			-17.362			-3.472
147302.000			-17.362			-3.472
147401.000			-17.362			-3.472
147500.000			-17.363			-3.473
147601.000			-17.362			-3.472
147700.000			-17.361			-3.472
147800.000			-17.361			-3.472
147901.000			-17.360			-3.472
148000.000			-17.360			-3.472
148100.000			-17.360			-3.472
148202.000			-17.360			-3.472
148301.000			-17.360			-3.472
148401.000			-17.360			-3.472
148501.000			-17.359			-3.472
148600.000			-17.359			-3.472
148700.000			-17.359			-3.472
148801.000			-17.359			-3.472
148900.000			-17.359			-3.472
149000.000			-17.358			-3.472
149100.000			-17.359			-3.472
149201.000			-17.359			-3.472
149302.000			-17.357			-3.471
149400.000			-17.356			-3.471
149500.000			-17.358			-3.472
149601.000			-17.358			-3.472
149700.000			-17.357			-3.471
149800.000			-17.356			-3.471
149901.000			-17.356			-3.471
150000.000			-17.356			-3.471
150101.000			-17.356			-3.471
150202.000			-17.356			-3.471
150301.000			-17.356			-3.471
150400.000			-17.356			-3.471
150501.000			-17.356			-3.471
150600.000			-17.355			-3.471
150700.000			-17.354			-3.471
150801.000			-17.354			-3.471
150900.000			-17.354			-3.471
151000.000			-17.353			-3.471
151102.000			-17.353			-3.471
151201.000			-17.352			-3.470
151300.000			-17.352			-3.470
151401.000			-17.352			-3.470
151500.000			-17.353			-3.471
151600.000			-17.354			-3.471
151701.000			-17.352			-3.470
151800.000			-17.351			-3.470
151900.000			-17.352			-3.470
152002.000			-17.351			-3.470
152101.000			-17.351			-3.470
152200.000			-17.351			-3.470
152300.000			-17.351			-3.470
152400.000			-17.350			-3.470
152501.000			-17.350			-3.470
152600.000			-17.350			-3.470
152700.000			-17.349			-3.470
152801.000			-17.349			-3.470
152901.000			-17.348			-3.470
153001.000			-17.348			-3.470
153101.000			-17.347			-3.469
153200.000			-17.347			-3.469
153300.000			-17.347			-3.469
153401.000			-17.347			-3.469
153500.000			-17.347			-3.469
153600.000			-17.347			-3.469
153701.000			-17.347			-3.469
153801.000			-17.347			-3.469
153901.000			-17.347			-3.469
154002.000			-17.346			-3.469
154100.000			-17.346			-3.469
154200.000			-17.346			-3.469
154301.000			-17.346			-3.469
154400.000			-17.344			-3.469
154500.000			-17.346			-3.469
154601.000			-17.345			-3.469
154701.000			-17.345			-3.469
154801.000			-17.345			-3.469
154902.000			-17.345			-3.469
155000.000			-17.344			-3.469
155100.000			-17.344			-3.469
155201.000			-17.344			-3.469
155300.000			-17.343			-3.469
155400.000			-17.343			-3.469
155500.000			-17.343			-3.469
155600.000			-17.342			-3.468
155702.000			-17.341			-3.468
155801.000			-17.342			-3.468
155900.000			-17.342			-3.468
156001.000			-17.341			-3.468
156100.000			-17.340			-3.468
156200.000			-17.341			-3.468
156301.000			-17.340			-3.468
156400.000			-17.341			-3.468
156500.000			-17.340			-3.468
156602.000			-17.340			-3.468
156701.000			-17.340			-3.468
156801.000			-17.339			-3.468
156901.000			-17.339			-3.468
157000.000			-17.340			-3.468
157100.000			-17.340			-3.468
157201.000			-17.339			-3.468
157300.000			-17.338			-3.468
157400.000			-17.338			-3.468
157501.000			-17.337			-3.467
157601.000			-17.337			-3.467
157701.000			-17.337			-3.467
157801.000			-17.337			-3.467
157900.000			-17.337			-3.467
158000.000			-17.337			-3.467
158101.000			-17.337			-3.467
158200.000			-17.337			-3.467
158300.000			-17.337			-3.467
158401.000			-17.337			-3.467
158501.000			-17.336			-3.467
158602.000			-17.335			-3.467
158701.000			-17.335			-3.467
158800.000			-17.336			-3.467
158901.000			-17.335			-3.467
159000.000			-17.335			-3.467
159100.000			-17.335			-3.467
159201.000			-17.333			-3.467
159300.000			-17.333			-3.467
159400.000			-17.334			-3.467
159502.000			-17.333			-3.467
159601.000			-17.334			-3.467
159701.000			-17.333			-3.467
159801.000			-17.333			-3.467
159900.000			-17.332			-3.466
160000.000			-17.332			-3.466
160101.000			-17.332			-3.466
160200.000			-17.331			-3.466
160300.000			-17.331			-3.466
160402.000			-17.331			-3.466
160501.000			-17.331			-3.466
160601.000			-17.330			-3.466
160701.000			-17.331			-3.466
160800.000			-17.331			-3.466
160900.000			-17.331			-3.466
161001.000			-17.329			-3.466
161100.000			-17.329			-3.466
161200.000			-17.328			-3.466
161302.000			-17.329			-3.466
161401.000			-17.330			-3.466
161501.000			-17.329			-3.466
161601.000			-17.328			-3.466
161700.000			-17.328			-3.466
161800.000			-17.328			-3.466
161900.000			-17.327			-3.465
162000.000			-17.327			-3.465
162101.000			-17.328			-3.466
162200.000			-17.329			-3.466
162301.000			-17.328			-3.466
162402.000			-17.326			-3.465
162500.000			-17.327			-3.465
162600.000			-17.326			-3.465
162701.000			-17.326			-3.465
162800.000			-17.325			-3.465
162900.000			-17.326			-3.465
163001.000			-17.325			-3.465
163100.000			-17.325			-3.465
163201.000			-17.324			-3.465
163302.000			-17.324			-3.465
163401.000			-17.324			-3.465
163500.000			-17.325			-3.465
163601.000			-17.324			-3.465
163700.000			-17.323			-3.465
163800.000			-17.322			-3.464
163901.000			-17.322			-3.464
164000.000			-17.322			-3.464
164100.000			-17.323			-3.465
164202.000			-17.323			-3.465
164301.000			-17.323			-3.465
164400.000			-17.322			-3.464
164501.000			-17.321			-3.464
164600.000			-17.321			-3.464
164700.000			-17.322			-3.464
164801.000			-17.322			-3.464
164900.000			-17.321			-3.464
165000.000			-17.321			-3.464
165102.000			-17.320			-3.464
165201.000			-17.319			-3.464
165301.000			-17.320			-3.464
165400.000			-17.320			-3.464
165500.000			-17.320			-3.464
165601.000			-17.320			-3.464
165700.000			-17.320			-3.464
165800.000			-17.320			-3.464
165901.000			-17.318			-3.464
166001.000			-17.317			-3.463
166101.000			-17.317			-3.463
166202.000			-17.317			-3.463
166300.000			-17.318			-3.464
166400.000			-17.319			-3.464
166501.000			-17.317			-3.463
166600.000			-17.316			-3.463
166700.000			-17.317			-3.463
166801.000			-17.317			-3.463
166900.000			-17.317			-3.463
167001.000			-17.317			-3.463
167102.000			-17.316			-3.463
167200.000			-17.316			-3.463
167300.000			-17.315			-3.463
167401.000			-17.314			-3.463
167500.000			-17.315			-3.463
167600.000			-17.316			-3.463
167701.000			-17.316			-3.463
167800.000			-17.315			-3.463
167901.000			-17.314			-3.463
168002.000			-17.314			-3.463
168101.000			-17.315			-3.463
168200.000			-17.314			-3.463
168300.000			-17.314			-3.463
168400.000			-17.314			-3.463
168501.000			-17.314			-3.463
168600.000			-17.313			-3.463
168700.000			-17.312			-3.462
168801.000			-17.311			-3.462
168901.000			-17.311			-3.462
169001.000			-17.311			-3.462
169101.000			-17.311			-3.462
169200.000			-17.312			-3.462
169300.000			-17.312			-3.462
169401.000			-17.311			-3.462
169500.000			-17.310			-3.462
169600.000			-17.310			-3.462
169701.000			-17.309			-3.462
169801.000			-17.310			-3.462
169901.000			-17.311			-3.462
170001.000			-17.310			-3.462
170100.000			-17.309			-3.462
170200.000			-17.309			-3.462
170301.000			-17.309			-3.462
170400.000			-17.310			-3.462
170500.000			-17.309			-3.462
170601.000			-17.309			-3.462
170701.000			-17.308			-3.462
170801.000			-17.308			-3.462
170902.000			-17.308			-3.462
171000.000			-17.308			-3.462
171100.000			-17.308			-3.462
171201.000			-17.307			-3.461
171300.000			-17.307			-3.461
171400.000			-17.307			-3.461
171500.000			-17.306			-3.461
171601.000			-17.306			-3.461
171702.000			-17.306			-3.461
171801.000			-17.306			-3.461
171900.000			-17.307			-3.461
172001.000			-17.306			-3.461
172100.000			-17.306			-3.461
172200.000			-17.306			-3.461
172301.000			-17.306			-3.461
172400.000			-17.305			-3.461
172500.000			-17.305			-3.461
172602.000			-17.304			-3.461
172701.000			-17.304			-3.461
172800.000			-17.304			-3.461
172901.000			-17.305			-3.461
173000.000			-17.304			-3.461
173100.000			-17.303			-3.461
173201.000			-17.303			-3.461
173300.000			-17.303			-3.461
173400.000			-17.303			-3.461
173502.000			-17.303			-3.461
173601.000			-17.302			-3.460
173700.000			-17.303			-3.461
173801.000			-17.302			-3.460
173900.000			-17.302			-3.460
174000.000			-17.302			-3.460
174101.000			-17.302			-3.460
174200.000			-17.301			-3.460
174300.000			-17.300			-3.460
174402.000			-17.300			-3.460
174501.000			-17.299			-3.460
174600.000			-17.299			-3.460
174700.000			-17.299			-3.460
174800.000			-17.298			-3.460
174901.000			-17.299			-3.460
175000.000			-17.298			-3.460
175100.000			-17.298			-3.460
175201.000			-17.299			-3.460
175300.000			-17.298			-3.460
175401.000			-17.298			-3.460
175502.000			-17.298			-3.460
175600.000			-17.298			-3.460
175700.000			-17.298			-3.460
175801.000			-17.298			-3.460
175900.000			-17.297			-3.459
176000.000			-17.296			-3.459
176101.000			-17.296			-3.459
176200.000			-17.297			-3.459
176301.000			-17.297			-3.459
176402.000			-17.296			-3.459
176501.000			-17.296			-3.459
176600.000			-17.295			-3.459
176701.000			-17.295			-3.459
176800.000			-17.295			-3.459
176900.000			-17.295			-3.459
177001.000			-17.295			-3.459
177100.000			-17.294			-3.459
177200.000			-17.293			-3.459
177302.000			-17.293			-3.459
177401.000			-17.294			-3.459
177501.000			-17.295			-3.459
177601.000			-17.294			-3.459
177700.000			-17.294			-3.459
177800.000			-17.293			-3.459
177900.000			-17.292			-3.458
178000.000			-17.293			-3.459
178101.000			-17.293			-3.459
178200.000			-17.292			-3.458
178301.000			-17.293			-3.459
178402.000			-17.292			-3.458
178501.000			-17.291			-3.458
178600.000			-17.291			-3.458
178701.000			-17.290			-3.458
178800.000			-17.292			-3.458
178900.000			-17.292			-3.458
179001.000			-17.290			-3.458
179100.000			-17.291			-3.458
179200.000			-17.291			-3.458
179302.000			-17.291			-3.458
179401.000			-17.289			-3.458
179500.000			-17.289			-3.458
179601.000			-17.289			-3.458
179700.000			-17.289			-3.458
179800.000			-17.289			-3.458
179901.000			-17.288			-3.458
180000.000			-17.288			-3.458
180100.000			-17.289			-3.458
180202.000			-17.289			-3.458
180301.000			-17.288			-3.458
180401.000			-17.288			-3.458
180501.000			-17.288			-3.458
180600.000			-17.287			-3.457
180700.000			-17.287			-3.457
180801.000			-17.287			-3.457
180900.000			-17.285			-3.457
181000.000			-17.285			-3.457
181100.000			-17.286			-3.457
181201.000			-17.287			-3.457
181302.000			-17.287			-3.457
181400.000			-17.286			-3.457
181500.000			-17.286			-3.457
181601.000			-17.286			-3.457
181700.000			-17.286			-3.457
181800.000			-17.285			-3.457
181901.000			-17.284			-3.457
182000.000			-17.284			-3.457
182101.000			-17.284			-3.457
182202.000			-17.283			-3.457
182301.000			-17.284			-3.457
182400.000			-17.283			-3.457
182501.000			-17.282			-3.456
182600.000			-17.282			-3.456
182700.000			-17.282			-3.456
182801.000			-17.282			-3.456
182900.000			-17.281			-3.456
183000.000			-17.281			-3.456
183102.000			-17.282			-3.456
183201.000			-17.281			-3.456
183300.000			-17.281			-3.456
183401.000			-17.280			-3.456
183500.000			-17.281			-3.456
183600.000			-17.281			-3.456
183701.000			-17.281			-3.456
183800.000			-17.281			-3.456
183900.000			-17.281			-3.456
184002.000			-17.280			-3.456
184101.000			-17.280			-3.456
184202.000			-17.279			-3.456
184300.000			-17.279			-3.456
184400.000			-17.280			-3.456
184501.000			-17.278			-3.456
184600.000			-17.279			-3.456
184700.000			-17.279			-3.456
184801.000			-17.278			-3.456
184900.000			-17.279			-3.456
185001.000			-17.279			-3.456
185102.000			-17.278			-3.456
185201.000			-17.278			-3.456
185300.000			-17.277			-3.455
185401.000			-17.277			-3.455
185500.000			-17.276			-3.455
185600.000			-17.277			-3.455
185701.000			-17.277			-3.455
185800.000			-17.276			-3.455
185900.000			-17.276			-3.455
186002.000			-17.276			-3.455
186101.000			-17.277			-3.455
186200.000			-17.275			-3.455
186301.000			-17.274			-3.455
186400.000			-17.275			-3.455
186500.000			-17.274			-3.455
186601.000			-17.274			-3.455
186700.000			-17.276			-3.455
186800.000			-17.275			-3.455
186902.000			-17.276			-3.455
187001.000			-17.275			-3.455
187101.000			-17.273			-3.455
187201.000			-17.273			-3.455
187300.000			-17.273			-3.455
187400.000			-17.273			-3.455
187500.000			-17.272			-3.454
187600.000			-17.272			-3.454
187701.000			-17.273			-3.455
187800.000			-17.273			-3.455
187901.000			-17.273			-3.455
188002.000			-17.272			-3.454
188101.000			-17.272			-3.454
188200.000			-17.272			-3.454
188301.000			-17.272			-3.454
188400.000			-17.271			-3.454
188500.000			-17.270			-3.454
188601.000			-17.271			-3.454
188700.000			-17.270			-3.454
188800.000			-17.271			-3.454
188902.000			-17.269			-3.454
189001.000			-17.270			-3.454
189101.000			-17.269			-3.454
189201.000			-17.269			-3.454
189300.000			-17.269			-3.454
189400.000			-17.269			-3.454
189501.000			-17.269			-3.454
189600.000			-17.269			-3.454
189700.000			-17.269			-3.454
189801.000			-17.269			-3.454
189901.000			-17.269			-3.454
190001.000			-17.269			-3.454
190102.000			-17.269			-3.454
190200.000			-17.268			-3.454
190300.000			-17.268			-3.454
190401.000			-17.268			-3.454
190500.000			-17.266			-3.453
190600.000			-17.266			-3.453
190700.000			-17.268			-3.454
190800.000			-17.267			-3.453
190902.000			-17.266			-3.453
191001.000			-17.267			-3.453
191100.000			-17.266			-3.453
191201.000			-17.265			-3.453
191300.000			-17.265			-3.453
191400.000			-17.266			-3.453
191501.000			-17.266			-3.453
191600.000			-17.264			-3.453
191700.000			-17.265			-3.453
191802.000			-17.265			-3.453
191901.000			-17.263			-3.453
192001.000			-17.264			-3.453
192101.000			-17.265			-3.453
192200.000			-17.264			-3.453
192300.000			-17.264			-3.453
192401.000			-17.264			-3.453
192500.000			-17.263			-3.453
192600.000			-17.264			-3.453
192701.000			-17.264			-3.453
192801.000			-17.262			-3.452
192901.000			-17.262			-3.452
193001.000			-17.262			-3.452
193100.000			-17.263			-3.453
193200.000			-17.262			-3.452
193301.000			-17.262			-3.452
193400.000			-17.261			-3.452
193500.000			-17.261			-3.452
193601.000			-17.261			-3.452
193701.000			-17.260			-3.452
193802.000			-17.260			-3.452
193900.000			-17.260			-3.452
194000.000			-17.260			-3.452
194101.000			-17.260			-3.452
194200.000			-17.260			-3.452
194300.000			-17.260			-3.452
194401.000			-17.259			-3.452
194500.000			-17.259			-3.452
194601.000			-17.259			-3.452
194702.000			-17.259			-3.452
194801.000			-17.259			-3.452
194900.000			-17.258			-3.452
195001.000			-17.259			-3.452
195100.000			-17.260			-3.452
195200.000			-17.259			-3.452
195301.000			-17.258			-3.452
195400.000			-17.258			-3.452
195500.000			-17.257			-3.451
195602.000			-17.258			-3.452
195701.000			-17.257			-3.451
195801.000			-17.256			-3.451
195901.000			-17.257			-3.451
196000.000			-17.258			-3.452
196100.000			-17.258			-3.452
196201.000			-17.257			-3.451
196300.000			-17.256			-3.451
196400.000			-17.256			-3.451
196501.000			-17.255			-3.451
196601.000			-17.255			-3.451
196701.000			-17.255			-3.451
196801.000			-17.255			-3.451
196900.000			-17.255			-3.451
197000.000			-17.254			-3.451
197100.000			-17.253			-3.451
197200.000			-17.254			-3.451
197301.000			-17.255			-3.451
197400.000			-17.254			-3.451
197501.000			-17.254			-3.451
197602.000			-17.254			-3.451
197701.000			-17.254			-3.451
197800.000			-17.253			-3.451
197901.000			-17.253			-3.451
198000.000			-17.253			-3.451
198100.000			-17.254			-3.451
198201.000			-17.253			-3.451
198300.000			-17.252			-3.450
198400.000			-17.252			-3.450
198502.000			-17.251			-3.450
198601.000			-17.252			-3.450
198700.000			-17.251			-3.450
198801.000			-17.249			-3.450
198900.000			-17.250			-3.450
199000.000			-17.251			-3.450
199101.000			-17.251			-3.450
199200.000			-17.251			-3.450
199300.000			-17.250			-3.450
199401.000			-17.250			-3.450
199501.000			-17.250			-3.450
199601.000			-17.249			-3.450
199701.000			-17.250			-3.450
199800.000			-17.249			-3.450
199900.000			-17.249			-3.450
200001.000			-17.250			-3.450
200100.000			-17.249			-3.450
200200.000			-17.248			-3.450
200300.000			-17.248			-3.450
200401.000			-17.248			-3.450
200502.000			-17.249			-3.450
200601.000			-17.248			-3.450
200700.000			-17.247			-3.449
200801.000			-17.248			-3.450
200900.000			-17.247			-3.449
201000.000			-17.247			-3.449
201101.000			-17.247			-3.449
201200.000			-17.247			-3.449
201301.000			-17.247			-3.449
201402.000			-17.246			-3.449
201501.000			-17.246			-3.449
201600.000			-17.245			-3.449
201701.000			-17.246			-3.449
201800.000			-17.246			-3.449
201900.000			-17.245			-3.449
202001.000			-17.246			-3.449
202100.000			-17.246			-3.449
202201.000			-17.245			-3.449
202302.000			-17.244			-3.449
202401.000			-17.245			-3.449
202500.000			-17.245			-3.449
202601.000			-17.244			-3.449
202700.000			-17.244			-3.449
202800.000			-17.243			-3.449
202901.000			-17.244			-3.449
203000.000			-17.244			-3.449
203101.000			-17.243			-3.449
203202.000			-17.243			-3.449
203301.000			-17.244			-3.449
203400.000			-17.245			-3.449
203500.000			-17.244			-3.449
203600.000			-17.242			-3.448
203701.000			-17.243			-3.449
203800.000			-17.242			-3.448
203900.000			-17.242			-3.448
204002.000			-17.242			-3.448
204101.000			-17.241			-3.448
204201.000			-17.241			-3.448
204301.000			-17.242			-3.448
204400.000			-17.241			-3.448
204500.000			-17.242			-3.448
204601.000			-17.242			-3.448
204700.000			-17.241			-3.448
204800.000			-17.242			-3.448
204902.000			-17.242			-3.448
205001.000			-17.241			-3.448
205101.000			-17.240			-3.448
205201.000			-17.240			-3.448
205300.000			-17.240			-3.448
205400.000			-17.239			-3.448
205501.000			-17.239			-3.448
205600.000			-17.239			-3.448
205700.000			-17.239			-3.448
205801.000			-17.239			-3.448
205901.000			-17.239			-3.448
206001.000			-17.238			-3.448
206101.000			-17.239			-3.448
206200.000			-17.239			-3.448
206300.000			-17.238			-3.448
206401.000			-17.237			-3.447
206500.000			-17.238			-3.448
206600.000			-17.237			-3.447
206700.000			-17.236			-3.447
206801.000			-17.236			-3.447
206902.000			-17.236			-3.447
207000.000			-17.236			-3.447
207100.000			-17.236			-3.447
207201.000			-17.237			-3.447
207300.000			-17.237			-3.447
207400.000			-17.237			-3.447
207501.000			-17.236			-3.447
207600.000			-17.235			-3.447
207701.000			-17.235			-3.447
207802.000			-17.235			-3.447
207900.000			-17.235			-3.447
208000.000			-17.236			-3.447
208101.000			-17.235			-3.447
208200.000			-17.234			-3.447
208300.000			-17.233			-3.447
208401.000			-17.233			-3.447
208500.000			-17.233			-3.447
208601.000			-17.233			-3.447
208702.000			-17.234			-3.447
208800.000			-17.233			-3.447
208900.000			-17.233			-3.447
209001.000			-17.234			-3.447
209100.000			-17.233			-3.447
209200.000			-17.232			-3.446
209301.000			-17.232			-3.446
209400.000			-17.231			-3.446
209501.000			-17.232			-3.446
209602.000			-17.232			-3.446
209700.000			-17.233			-3.447
209800.000			-17.233			-3.447
209900.000			-17.232			-3.446
210000.000			-17.231			-3.446
210101.000			-17.230			-3.446
210200.000			-17.231			-3.446
210300.000			-17.231			-3.446
210402.000			-17.231			-3.446
210501.000			-17.230			-3.446
210600.000			-17.231			-3.446
210701.000			-17.231			-3.446
210800.000			-17.230			-3.446
210900.000			-17.229			-3.446
211001.000			-17.229			-3.446
211100.000			-17.230			-3.446
211200.000			-17.229			-3.446
211302.000			-17.229			-3.446
211401.000			-17.228			-3.446
211500.000			-17.228			-3.446
211601.000			-17.229			-3.446
211700.000			-17.228			-3.446
211800.000			-17.228			-3.446
211901.000			-17.229			-3.446
212000.000			-17.229			-3.446
212100.000			-17.227			-3.445
212202.000			-17.226			-3.445
212301.000			-17.227			-3.445
212400.000			-17.227			-3.445
212501.000			-17.226			-3.445
212600.000			-17.226			-3.445
212700.000			-17.227			-3.445
212801.000			-17.228			-3.446
212900.000			-17.227			-3.445
213000.000			-17.227			-3.445
213102.000			-17.226			-3.445
213201.000			-17.226			-3.445
213301.000			-17.225			-3.445
213400.000			-17.224			-3.445
213500.000			-17.227			-3.445
213601.000			-17.226			-3.445
213700.000			-17.225			-3.445
213800.000			-17.225			-3.445
213901.000			-17.223			-3.445
214001.000			-17.223			-3.445
214101.000			-17.225			-3.445
214201.000			-17.225			-3.445
214300.000			-17.225			-3.445
214400.000			-17.224			-3.445
214501.000			-17.224			-3.445
214600.000			-17.223			-3.445
214700.000			-17.222			-3.444
214801.000			-17.222			-3.444
214901.000			-17.222			-3.444
215001.000			-17.223			-3.445
215101.000			-17.223			-3.445
215200.000			-17.224			-3.445
215300.000			-17.223			-3.445
215401.000			-17.222			-3.444
215500.000			-17.221			-3.444
215600.000			-17.221			-3.444
215701.000			-17.221			-3.444
215801.000			-17.221			-3.444
215901.000			-17.223			-3.445
216001.000			-17.222			-3.444
216100.000			-17.222			-3.444
216200.000			-17.221			-3.444
216300.000			-17.221			-3.444
216400.000			-17.221			-3.444
216501.000			-17.220			-3.444
216600.000			-17.220			-3.444
216701.000			-17.220			-3.444
216802.000			-17.219			-3.444
216900.000			-17.218			-3.444
217000.000			-17.220			-3.444
217101.000			-17.220			-3.444
217200.000			-17.218			-3.444
217300.000			-17.219			-3.444
217401.000			-17.220			-3.444
217500.000			-17.220			-3.444
217601.000			-17.218			-3.444
217702.000			-17.219			-3.444
217801.000			-17.218			-3.444
217900.000			-17.217			-3.443
218001.000			-17.216			-3.443
218100.000			-17.217			-3.443
218200.000			-17.218			-3.444
218301.000			-17.217			-3.443
218400.000			-17.217			-3.443
218501.000			-17.217			-3.443
218602.000			-17.216			-3.443
218701.000			-17.216			-3.443
218800.000			-17.217			-3.443
218901.000			-17.216			-3.443
219000.000			-17.215			-3.443
219100.000			-17.216			-3.443
219201.000			-17.215			-3.443
219300.000			-17.215			-3.443
219402.000			-17.216			-3.443
219501.000			-17.215			-3.443
219601.000			-17.214			-3.443
219701.000			-17.214			-3.443
219800.000			-17.214			-3.443
219900.000			-17.215			-3.443
220001.000			-17.214			-3.443
220100.000			-17.214			-3.443
220200.000			-17.214			-3.443
220301.000			-17.214			-3.443
220401.000			-17.214			-3.443
220501.000			-17.214			-3.443
220601.000			-17.213			-3.443
220700.000			-17.212			-3.442
220800.000			-17.213			-3.443
220901.000			-17.212			-3.442
221000.000			-17.211			-3.442
221100.000			-17.212			-3.442
221201.000			-17.213			-3.443
221301.000			-17.212			-3.442
221401.000			-17.213			-3.443
221501.000			-17.211			-3.442
221600.000			-17.211			-3.442
221700.000			-17.211			-3.442
221801.000			-17.211			-3.442
221900.000			-17.211			-3.442
222000.000			-17.211			-3.442
222102.000			-17.210			-3.442
222201.000			-17.210			-3.442
222301.000			-17.211			-3.442
222401.000			-17.210			-3.442
222500.000			-17.209			-3.442
222600.000			-17.209			-3.442
222700.000			-17.210			-3.442
222800.000			-17.209			-3.442
222901.000			-17.209			-3.442
223001.000			-17.208			-3.442
223101.000			-17.207			-3.441
223202.000			-17.209			-3.442
223300.000			-17.208			-3.442
223400.000			-17.207			-3.441
223501.000			-17.208			-3.442
223600.000			-17.207			-3.441
223700.000			-17.208			-3.442
223801.000			-17.207			-3.441
223901.000			-17.207			-3.441
224001.000			-17.207			-3.441
224102.000			-17.207			-3.441
224200.000			-17.207			-3.441
224300.000			-17.206			-3.441
224401.000			-17.206			-3.441
224500.000			-17.206			-3.441
224600.000			-17.207			-3.441
224701.000			-17.207			-3.441
224801.000			-17.207			-3.441
224901.000			-17.205			-3.441
225002.000			-17.206			-3.441
225100.000			-17.206			-3.441
225200.000			-17.206			-3.441
225301.000			-17.206			-3.441
225400.000			-17.206			-3.441
225500.000			-17.206			-3.441
225601.000			-17.206			-3.441
225701.000			-17.204			-3.441
225802.000			-17.204			-3.441
225901.000			-17.204			-3.441
226000.000			-17.203			-3.441
226101.000			-17.203			-3.441
226200.000			-17.204			-3.441
226300.000			-17.203			-3.441
226401.000			-17.203			-3.441
226500.000			-17.203			-3.441
226600.000			-17.202			-3.440
226702.000			-17.201			-3.440
226801.000			-17.202			-3.440
226900.000			-17.201			-3.440
227001.000			-17.202			-3.440
227100.000			-17.202			-3.440
227200.000			-17.200			-3.440
227301.000			-17.200			-3.440
227400.000			-17.201			-3.440
227500.000			-17.201			-3.440
227602.000			-17.200			-3.440
227701.000			-17.201			-3.440
227800.000			-17.200			-3.440
227901.000			-17.200			-3.440
228000.000			-17.200			-3.440
228100.000			-17.200			-3.440
228201.000			-17.200			-3.440
228300.000			-17.199			-3.440
228400.000			-17.199			-3.440
228502.000			-17.199			-3.440
228601.000			-17.198			-3.440
228700.000			-17.198			-3.440
228801.000			-17.198			-3.440
228900.000			-17.199			-3.440
229000.000			-17.200			-3.440
229100.000			-17.200			-3.440
229200.000			-17.199			-3.440
229301.000			-17.199			-3.440
229400.000			-17.198			-3.440
229501.000			-17.198			-3.440
229602.000			-17.197			-3.439
229700.000			-17.197			-3.439
229800.000			-17.197			-3.439
229901.000			-17.197			-3.439
230000.000			-17.198			-3.440
230100.000			-17.197			-3.439
230201.000			-17.196			-3.439
230300.000			-17.196			-3.439
230401.000			-17.197			-3.439
230502.000			-17.196			-3.439
230601.000			-17.196			-3.439
230700.000			-17.195			-3.439
230801.000			-17.196			-3.439
230900.000			-17.195			-3.439
231000.000			-17.194			-3.439
231101.000			-17.194			-3.439
231200.000			-17.194			-3.439
231301.000			-17.194			-3.439
231402.000			-17.194			-3.439
231501.000			-17.194			-3.439
231600.000			-17.194			-3.439
231701.000			-17.194			-3.439
231800.000			-17.194			-3.439
231900.000			-17.194			-3.439
232001.000			-17.193			-3.439
232100.000			-17.194			-3.439
232200.000			-17.194			-3.439
232302.000			-17.192			-3.438
232401.000			-17.192			-3.438
232501.000			-17.193			-3.439
232600.000			-17.192			-3.438
232700.000			-17.192			-3.438
232801.000			-17.193			-3.439
232900.000			-17.192			-3.438
233000.000			-17.192			-3.438
233101.000			-17.192			-3.438
233201.000			-17.191			-3.438
233301.000			-17.191			-3.438
233401.000			-17.191			-3.438
233500.000			-17.191			-3.438
233600.000			-17.191			-3.438
233701.000			-17.190			-3.438
233800.000			-17.191			-3.438
233900.000			-17.191			-3.438
234001.000			-17.191			-3.438
234101.000			-17.191			-3.438
234201.000			-17.191			-3.438
234301.000			-17.189			-3.438
234400.000			-17.189			-3.438
234500.000			-17.190			-3.438
234601.000			-17.190			-3.438
234700.000			-17.189			-3.438
234800.000			-17.189			-3.438
234901.000			-17.189			-3.438
235001.000			-17.188			-3.438
235101.000			-17.188			-3.438
235202.000			-17.188			-3.438
235300.000			-17.189			-3.438
235400.000			-17.190			-3.438
235500.000			-17.190			-3.438
235600.000			-17.188			-3.438
235701.000			-17.187			-3.437
235800.000			-17.187			-3.437
235900.000			-17.187			-3.437
236002.000			-17.187			-3.437
236101.000			-17.187			-3.437
236201.000			-17.186			-3.437
236301.000			-17.187			-3.437
236400.000			-17.186			-3.437
236500.000			-17.186			-3.437
236601.000			-17.186			-3.437
236700.000			-17.184			-3.437
236800.000			-17.185			-3.437
236901.000			-17.185			-3.437
237001.000			-17.187			-3.437
237101.000			-17.186			-3.437
237201.000			-17.185			-3.437
237300.000			-17.185			-3.437
237400.000			-17.185			-3.437
237501.000			-17.185			-3.437
237600.000			-17.184			-3.437
237700.000			-17.184			-3.437
237801.000			-17.184			-3.437
237901.000			-17.184			-3.437
238001.000			-17.184			-3.437
238101.000			-17.184			-3.437
238200.000			-17.184			-3.437
238300.000			-17.184			-3.437
238401.000			-17.183			-3.437
238500.000			-17.183			-3.437
238600.000			-17.182			-3.436
238700.000			-17.182			-3.436
238801.000			-17.182			-3.436
238902.000			-17.183			-3.437
239001.000			-17.182			-3.436
239100.000			-17.181			-3.436
239201.000			-17.182			-3.436
239300.000			-17.182			-3.436
239400.000			-17.181			-3.436
239501.000			-17.181			-3.436
239600.000			-17.182			-3.436
239700.000			-17.181			-3.436
239802.000			-17.180			-3.436
239901.000			-17.181			-3.436
240000.000			-17.181			-3.436
240101.000			-17.181			-3.436
240200.000			-17.180			-3.436
240300.000			-17.181			-3.436
240401.000			-17.180			-3.436
240500.000			-17.179			-3.436
240600.000			-17.179			-3.436
240702.000			-17.179			-3.436
240801.000			-17.178			-3.436
240900.000			-17.179			-3.436
241001.000			-17.179			-3.436
241100.000			-17.180			-3.436
241200.000			-17.179			-3.436
241301.000			-17.178			-3.436
241400.000			-17.179			-3.436
241500.000			-17.178			-3.436
241602.000			-17.177			-3.435
241701.000			-17.178			-3.436
241802.000			-17.178			-3.436
241900.000			-17.177			-3.435
242000.000			-17.177			-3.435
242101.000			-17.178			-3.436
242200.000			-17.178			-3.436
242300.000			-17.177			-3.435
242401.000			-17.178			-3.436
242500.000			-17.178			-3.436
242601.000			-17.177			-3.435
242702.000			-17.176			-3.435
242801.000			-17.175			-3.435
242900.000			-17.175			-3.435
243001.000			-17.176			-3.435
243100.000			-17.175			-3.435
243200.000			-17.176			-3.435
243301.000			-17.176			-3.435
243400.000			-17.176			-3.435
243500.000			-17.176			-3.435
243602.000			-17.175			-3.435
243701.000			-17.174			-3.435
243800.000			-17.174			-3.435
243901.000			-17.175			-3.435
244000.000			-17.174			-3.435
244100.000			-17.174			-3.435
244201.000			-17.174			-3.435
244300.000			-17.174			-3.435
244400.000			-17.174			-3.435
244502.000			-17.174			-3.435
244601.000			-17.175			-3.435
244700.000			-17.174			-3.435
244801.000			-17.172			-3.434
244900.000			-17.173			-3.435
245000.000			-17.173			-3.435
245100.000			-17.172			-3.434
245200.000			-17.172			-3.434
245301.000			-17.172			-3.434
245401.000			-17.173			-3.435
245501.000			-17.170			-3.434
245601.000			-17.171			-3.434
245700.000			-17.172			-3.434
245800.000			-17.172			-3.434
245901.000			-17.171			-3.434
246000.000			-17.170			-3.434
246100.000			-17.171			-3.434
246201.000			-17.171			-3.434
246301.000			-17.171			-3.434
246401.000			-17.171			-3.434
246502.000			-17.170			-3.434
246600.000			-17.170			-3.434
246700.000			-17.170			-3.434
246801.000			-17.170			-3.434
246900.000			-17.170			-3.434
247000.000			-17.169			-3.434
247101.000			-17.170			-3.434
247201.000			-17.170			-3.434
247301.000			-17.169			-3.434
247402.000			-17.169			-3.434
247500.000			-17.169			-3.434
247600.000			-17.168			-3.434
247701.000			-17.170			-3.434
247800.000			-17.169			-3.434
247900.000			-17.168			-3.434
248001.000			-17.167			-3.433
248100.000			-17.168			-3.434
248202.000			-17.168			-3.434
248301.000			-17.167			-3.433
248401.000			-17.167			-3.433
248501.000			-17.168			-3.434
248600.000			-17.167			-3.433
248700.000			-17.168			-3.434
248801.000			-17.167			-3.433
248900.000			-17.168			-3.434
249000.000			-17.167			-3.433
249101.000			-17.168			-3.434
249201.000			-17.166			-3.433
249301.000			-17.166			-3.433
249402.000			-17.166			-3.433
249500.000			-17.166			-3.433
249600.000			-17.166			-3.433
249701.000			-17.165			-3.433
249800.000			-17.166			-3.433
249900.000			-17.167			-3.433
250001.000			-17.166			-3.433
250100.000			-17.165			-3.433
250201.000			-17.165			-3.433
250302.000			-17.165			-3.433
250400.000			-17.165			-3.433
250500.000			-17.164			-3.433
250601.000			-17.164			-3.433
250700.000			-17.163			-3.433
250800.000			-17.163			-3.433
250901.000			-17.164			-3.433
251000.000			-17.164			-3.433
251101.000			-17.163			-3.433
251202.000			-17.162			-3.432
251300.000			-17.162			-3.432
251400.000			-17.163			-3.433
251500.000			-17.163			-3.433
251600.000			-17.163			-3.433
251701.000			-17.163			-3.433
251800.000			-17.162			-3.432
251900.000			-17.162			-3.432
252002.000			-17.161			-3.432
252101.000			-17.162			-3.432
252201.000			-17.161			-3.432
252301.000			-17.162			-3.432
252400.000			-17.162			-3.432
252500.000			-17.162			-3.432
252601.000			-17.162			-3.432
252700.000			-17.162			-3.432
252800.000			-17.162			-3.432
252902.000			-17.160			-3.432
253001.000			-17.162			-3.432
253101.000			-17.161			-3.432
253201.000			-17.160			-3.432
253300.000			-17.160			-3.432
253400.000			-17.160			-3.432
253501.000			-17.158			-3.432
253600.000			-17.159			-3.432
253700.000			-17.159			-3.432
253802.000			-17.159			-3.432
253901.000			-17.159			-3.432
254001.000			-17.158			-3.432
254101.000			-17.159			-3.432
254200.000			-17.159			-3.432
254300.000			-17.159			-3.432
254401.000			-17.159			-3.432
254500.000			-17.159			-3.432
254600.000			-17.159			-3.432
254700.000			-17.158			-3.432
254801.000			-17.158			-3.432
254902.000			-17.158			-3.432
255001.000			-17.157			-3.431
255100.000			-17.156			-3.431
255201.000			-17.157			-3.431
255300.000			-17.157			-3.431
255400.000			-17.156			-3.431
255501.000			-17.156			-3.431
255600.000			-17.157			-3.431
255700.000			-17.157			-3.431
255802.000			-17.157			-3.431
255901.000			-17.156			-3.431
256000.000			-17.155			-3.431
256101.000			-17.155			-3.431
256200.000			-17.156			-3.431
256300.000			-17.156			-3.431
256401.000			-17.155			-3.431
256500.000			-17.155			-3.431
256600.000			-17.155			-3.431
256702.000			-17.154			-3.431
256801.000			-17.154			-3.431
256901.000			-17.154			-3.431
257001.000			-17.154			-3.431
257100.000			-17.153			-3.431
257200.000			-17.153			-3.431
257301.000			-17.153			-3.431
257400.000			-17.153			-3.431
257500.000			-17.153			-3.431
257601.000			-17.154			-3.431
257701.000			-17.154			-3.431
257802.000			-17.154			-3.431
257900.000			-17.153			-3.431
258000.000			-17.152			-3.430
258101.000			-17.153			-3.431
258200.000			-17.153			-3.431
258300.000			-17.153			-3.431
258401.000			-17.152			-3.430
258500.000			-17.151			-3.430
258601.000			-17.151			-3.430
258702.000			-17.152			-3.430
258801.000			-17.152			-3.430
258900.000			-17.152			-3.430
259001.000			-17.152			-3.430
259100.000			-17.151			-3.430
259200.000			-17.150			-3.430
259301.000			-17.151			-3.430
259400.000			-17.151			-3.430
259501.000			-17.151			-3.430
259602.000			-17.151			-3.430
259701.000			-17.151			-3.430
259800.000			-17.150			-3.430
259901.000			-17.149			-3.430
260000.000			-17.149			-3.430
260100.000			-17.150			-3.430
260201.000			-17.149			-3.430
260300.000			-17.149			-3.430
260400.000			-17.149			-3.430
260502.000			-17.149			-3.430
260601.000			-17.150			-3.430
260700.000			-17.149			-3.430
260801.000			-17.148			-3.430
260900.000			-17.149			-3.430
261000.000			-17.148			-3.430
261100.000			-17.148			-3.430
261200.000			-17.148			-3.430
261301.000			-17.149			-3.430
261401.000			-17.148			-3.430
261501.000			-17.148			-3.430
261602.000			-17.147			-3.429
261700.000			-17.147			-3.429
261800.000			-17.148			-3.430
261901.000			-17.148			-3.430
262000.000			-17.148			-3.430
262100.000			-17.148			-3.430
262201.000			-17.147			-3.429
262301.000			-17.146			-3.429
262401.000			-17.146			-3.429
262502.000			-17.146			-3.429
262600.000			-17.146			-3.429
262700.000			-17.146			-3.429
262801.000			-17.147			-3.429
262900.000			-17.146			-3.429
263000.000			-17.145			-3.429
263101.000			-17.146			-3.429
263200.000			-17.146			-3.429
263301.000			-17.145			-3.429
263402.000			-17.145			-3.429
263500.000			-17.145			-3.429
263600.000			-17.145			-3.429
263701.000			-17.145			-3.429
263800.000			-17.144			-3.429
263900.000			-17.144			-3.429
264001.000			-17.144			-3.429
264100.000			-17.144			-3.429
264202.000			-17.144			-3.429
264301.000			-17.144			-3.429
264400.000			-17.143			-3.429
264501.000			-17.143			-3.429
264600.000			-17.143			-3.429
264700.000			-17.143			-3.429
264801.000			-17.142			-3.428
264900.000			-17.143			-3.429
265000.000			-17.143			-3.429
265102.000			-17.142			-3.428
265201.000			-17.142			-3.428
265301.000			-17.142			-3.428
265401.000			-17.142			-3.428
265500.000			-17.142			-3.428
265600.000			-17.142			-3.428
265701.000			-17.141			-3.428
265800.000			-17.142			-3.428
265900.000			-17.142			-3.428
266002.000			-17.142			-3.428
266101.000			-17.141			-3.428
266201.000			-17.141			-3.428
266301.000			-17.141			-3.428
266400.000			-17.141			-3.428
266500.000			-17.141			-3.428
266601.000			-17.141			-3.428
266700.000			-17.141			-3.428
266800.000			-17.141			-3.428
266902.000			-17.140			-3.428
267001.000			-17.141			-3.428
267101.000			-17.140			-3.428
267201.000			-17.139			-3.428
267300.000			-17.140			-3.428
267400.000			-17.140			-3.428
267500.000			-17.139			-3.428
267600.000			-17.139			-3.428
267701.000			-17.139			-3.428
267800.000			-17.139			-3.428
267901.000			-17.138			-3.428
268002.000			-17.138			-3.428
268101.000			-17.138			-3.428
268200.000			-17.138			-3.428
268301.000			-17.139			-3.428
268400.000			-17.138			-3.428
268500.000			-17.138			-3.428
268601.000			-17.138			-3.428
268700.000			-17.138			-3.428
268800.000			-17.138			-3.428
268902.000			-17.138			-3.428
269001.000			-17.137			-3.427
269100.000			-17.137			-3.427
269201.000			-17.137			-3.427
269300.000			-17.137			-3.427
269400.000			-17.137			-3.427
269501.000			-17.137			-3.427
269600.000			-17.137			-3.427
269700.000			-17.137			-3.427
269802.000			-17.136			-3.427
269901.000			-17.135			-3.427
270001.000			-17.136			-3.427
270101.000			-17.136			-3.427
270200.000			-17.136			-3.427
270300.000			-17.136			-3.427
270401.000			-17.136			-3.427
270500.000			-17.134			-3.427
270600.000			-17.134			-3.427
270702.000			-17.135			-3.427
270801.000			-17.135			-3.427
270902.000			-17.134			-3.427
271000.000			-17.134			-3.427
271100.000			-17.135			-3.427
271201.000			-17.134			-3.427
271300.000			-17.134			-3.427
271400.000			-17.134			-3.427
271501.000			-17.133			-3.427
271601.000			-17.134			-3.427
271701.000			-17.134			-3.427
271802.000			-17.133			-3.427
271900.000			-17.134			-3.427
272000.000			-17.134			-3.427
272101.000			-17.133			-3.427
272200.000			-17.132			-3.426
272300.000			-17.133			-3.427
272401.000			-17.133			-3.427
272501.000			-17.133			-3.427
272601.000			-17.133			-3.427
272702.000			-17.132			-3.426
272800.000			-17.132			-3.426
272900.000			-17.132			-3.426
273001.000			-17.132			-3.426
273100.000			-17.132			-3.426
273200.000			-17.132			-3.426
273301.000			-17.131			-3.426
273401.000			-17.132			-3.426
273501.000			-17.131			-3.426
273602.000			-17.131			-3.426
273700.000			-17.131			-3.426
273800.000			-17.131			-3.426
273900.000			-17.131			-3.426
274000.000			-17.131			-3.426
274101.000			-17.130			-3.426
274200.000			-17.130			-3.426
274300.000			-17.129			-3.426
274402.000			-17.130			-3.426
274501.000			-17.130			-3.426
274600.000			-17.129			-3.426
274701.000			-17.129			-3.426
274800.000			-17.129			-3.426
274900.000			-17.129			-3.426
275001.000			-17.129			-3.426
275100.000			-17.129			-3.426
275200.000			-17.128			-3.426
275302.000			-17.127			-3.425
275401.000			-17.129			-3.426
275501.000			-17.129			-3.426
275601.000			-17.128			-3.426
275700.000			-17.128			-3.426
275800.000			-17.128			-3.426
275901.000			-17.127			-3.425
276000.000			-17.128			-3.426
276100.000			-17.128			-3.426
276202.000			-17.128			-3.426
276301.000			-17.127			-3.425
276401.000			-17.127			-3.425
276501.000			-17.127			-3.425
276600.000			-17.127			-3.425
276700.000			-17.126			-3.425
276801.000			-17.125			-3.425
276900.000			-17.126			-3.425
277000.000			-17.127			-3.425
277100.000			-17.126			-3.425
277201.000			-17.126			-3.425
277302.000			-17.125			-3.425
277401.000			-17.126			-3.425
277500.000			-17.126			-3.425
277601.000			-17.126			-3.425
277700.000			-17.126			-3.425
277800.000			-17.125			-3.425
277901.000			-17.125			-3.425
278000.000			-17.125			-3.425
278100.000			-17.125			-3.425
278202.000			-17.125			-3.425
278301.000			-17.125			-3.425
278400.000			-17.125			-3.425
278501.000			-17.124			-3.425
278600.000			-17.123			-3.425
278700.000			-17.123			-3.425
278801.000			-17.124			-3.425
278900.000			-17.124			-3.425
279000.000			-17.124			-3.425
279102.000			-17.123			-3.425
279201.000			-17.122			-3.424
279300.000			-17.122			-3.424
279401.000			-17.122			-3.424
279500.000			-17.123			-3.425
279600.000			-17.122			-3.424
279701.000			-17.122			-3.424
279800.000			-17.122			-3.424
279900.000			-17.122			-3.424
280002.000			-17.122			-3.424
280101.000			-17.123			-3.425
280202.000			-17.122			-3.424
280300.000			-17.122			-3.424
280400.000			-17.121			-3.424
280501.000			-17.121			-3.424
280600.000			-17.122			-3.424
280700.000			-17.122			-3.424
280801.000			-17.121			-3.424
280901.000			-17.121			-3.424
281001.000			-17.121			-3.424
281102.000			-17.120			-3.424
281200.000			-17.120			-3.424
281300.000			-17.120			-3.424
281401.000			-17.120			-3.424
281500.000			-17.120			-3.424
281600.000			-17.119			-3.424
281701.000			-17.119			-3.424
281801.000			-17.119			-3.424
281901.000			-17.119			-3.424
282002.000			-17.120			-3.424
282100.000			-17.119			-3.424
282200.000			-17.119			-3.424
282301.000			-17.120			-3.424
282400.000			-17.120			-3.424
282500.000			-17.119			-3.424
282601.000			-17.118			-3.424
282701.000			-17.119			-3.424
282801.000			-17.118			-3.424
282902.000			-17.119			-3.424
283000.000			-17.118			-3.424
283100.000			-17.118			-3.424
283201.000			-17.118			-3.424
283300.000			-17.118			-3.424
283400.000			-17.118			-3.424
283500.000			-17.118			-3.424
283600.000			-17.118			-3.424
283702.000			-17.117			-3.423
283801.000			-17.116			-3.423
283900.000			-17.117			-3.423
284001.000			-17.116			-3.423
284100.000			-17.117			-3.423
284200.000			-17.116			-3.423
284301.000			-17.117			-3.423
284400.000			-17.116			-3.423
284500.000			-17.116			-3.423
284602.000			-17.116			-3.423
284701.000			-17.116			-3.423
284801.000			-17.116			-3.423
284901.000			-17.116			-3.423
285000.000			-17.116			-3.423
285100.000			-17.115			-3.423
285201.000			-17.115			-3.423
285300.000			-17.115			-3.423
285400.000			-17.115			-3.423
285502.000			-17.115			-3.423
285601.000			-17.114			-3.423
285701.000			-17.113			-3.423
285801.000			-17.114			-3.423
285900.000			-17.114			-3.423
286000.000			-17.114			-3.423
286101.000			-17.114			-3.423
286200.000			-17.114			-3.423
286300.000			-17.114			-3.423
286402.000			-17.113			-3.423
286501.000			-17.113			-3.423
286602.000			-17.113			-3.423
286700.000			-17.113			-3.423
286800.000			-17.113			-3.423
286901.000			-17.112			-3.422
287000.000			-17.113			-3.423
287100.000			-17.113			-3.423
287201.000			-17.113			-3.423
287300.000			-17.111			-3.422
287401.000			-17.111			-3.422
287502.000			-17.112			-3.422
287600.000			-17.112			-3.422
287700.000			-17.111			-3.422
287801.000			-17.110			-3.422
287900.000			-17.112			-3.422
288000.000			-17.111			-3.422
288101.000			-17.110			-3.422
288200.000			-17.110			-3.422
288301.000			-17.111			-3.422
288402.000			-17.111			-3.422
288500.000			-17.111			-3.422
288600.000			-17.110			-3.422
288701.000			-17.109			-3.422
288800.000			-17.110			-3.422
288900.000			-17.110			-3.422
289001.000			-17.109			-3.422
289100.000			-17.110			-3.422
289201.000			-17.110			-3.422
289302.000			-17.110			-3.422
289401.000			-17.110			-3.422
289500.000			-17.109			-3.422
289601.000			-17.109			-3.422
289700.000			-17.109			-3.422
289800.000			-17.109			-3.422
289900.000			-17.109			-3.422
290000.000			-17.108			-3.422
290101.000			-17.108			-3.422
290201.000			-17.109			-3.422
290301.000			-17.108			-3.422
290401.000			-17.108			-3.422
290500.000			-17.108			-3.422
290600.000			-17.108			-3.422
290701.000			-17.108			-3.422
290800.000			-17.107			-3.421
290900.000			-17.107			-3.421
291001.000			-17.107			-3.421
291101.000			-17.108			-3.422
291201.000			-17.108			-3.422
291301.000			-17.108			-3.422
291400.000			-17.107			-3.421
291500.000			-17.105			-3.421
291601.000			-17.106			-3.421
291700.000			-17.106			-3.421
291800.000			-17.105			-3.421
291901.000			-17.106			-3.421
292001.000			-17.106			-3.421
292101.000			-17.106			-3.421
292201.000			-17.106			-3.421
292300.000			-17.106			-3.421
292400.000			-17.105			-3.421
292501.000			-17.103			-3.421
292600.000			-17.104			-3.421
292700.000			-17.105			-3.421
292801.000			-17.105			-3.421
292901.000			-17.105			-3.421
293002.000			-17.105			-3.421
293101.000			-17.105			-3.421
293200.000			-17.104			-3.421
293301.000			-17.104			-3.421
293400.000			-17.106			-3.421
293500.000			-17.105			-3.421
293601.000			-17.104			-3.421
293700.000			-17.104			-3.421
293801.000			-17.104			-3.421
293902.000			-17.103			-3.421
294001.000			-17.103			-3.421
294100.000			-17.103			-3.421
294201.000			-17.103			-3.421
294300.000			-17.103			-3.421
294400.000			-17.102			-3.420
294501.000			-17.103			-3.421
294600.000			-17.103			-3.421
294700.000			-17.103			-3.421
294802.000			-17.102			-3.420
294901.000			-17.102			-3.420
295000.000			-17.102			-3.420
295101.000			-17.102			-3.420
295200.000			-17.103			-3.421
295300.000			-17.102			-3.420
295401.000			-17.102			-3.420
295500.000			-17.102			-3.420
295600.000			-17.101			-3.420
295702.000			-17.101			-3.420
295801.000			-17.100			-3.420
295900.000			-17.100			-3.420
296001.000			-17.102			-3.420
296100.000			-17.101			-3.420
296200.000			-17.100			-3.420
296300.000			-17.101			-3.420
296400.000			-17.100			-3.420
296501.000			-17.100			-3.420
296601.000			-17.100			-3.420
296701.000			-17.100			-3.420
296802.000			-17.099			-3.420
296900.000			-17.099			-3.420
297000.000			-17.099			-3.420
297101.000			-17.099			-3.420
297200.000			-17.100			-3.420
297300.000			-17.099			-3.420
297401.000			-17.099			-3.420
297500.000			-17.098			-3.420
297601.000			-17.099			-3.420
297702.000			-17.099			-3.420
297801.000			-17.098			-3.420
297900.000			-17.097			-3.419
298001.000			-17.098			-3.420
298100.000			-17.098			-3.420
298200.000			-17.098			-3.420
298301.000			-17.098			-3.420
298400.000			-17.098			-3.420
298500.000			-17.098			-3.420
298602.000			-17.098			-3.420
298701.000			-17.097			-3.419
298801.000			-17.097			-3.419
298901.000			-17.096			-3.419
299000.000			-17.097			-3.419
299100.000			-17.097			-3.419
299201.000			-17.097			-3.419
299300.000			-17.096			-3.419
299400.000			-17.096			-3.419
299500.000			-17.096			-3.419
299601.000			-17.096			-3.419
299702.000			-17.095			-3.419
299801.000			-17.095			-3.419
299900.000			-17.096			-3.419
