# Acquired on 10/01/2024 15:13:18 
# SPIDER: Creep_7mm_07714532B-1
# CREEP MEASUREMENT

# time [ms]		force [N]		stiffness [N/mm]
1.000			-29.698			-4.243
101.000			-31.422			-4.489
200.000			-32.123			-4.589
300.000			-32.162			-4.595
401.000			-31.828			-4.547
500.000			-31.704			-4.529
601.000			-31.597			-4.514
702.000			-31.506			-4.501
800.000			-31.425			-4.489
900.000			-31.351			-4.479
1001.000			-31.285			-4.469
1100.000			-31.169			-4.453
1200.000			-31.117			-4.445
1301.000			-31.068			-4.438
1401.000			-31.025			-4.432
1501.000			-30.981			-4.426
1601.000			-30.940			-4.420
1700.000			-30.902			-4.415
1800.000			-30.832			-4.405
1901.000			-30.800			-4.400
2000.000			-30.768			-4.395
2101.000			-30.738			-4.391
2202.000			-30.710			-4.387
2300.000			-30.682			-4.383
2400.000			-30.654			-4.379
2501.000			-30.629			-4.376
2600.000			-30.581			-4.369
2701.000			-30.558			-4.365
2800.000			-30.535			-4.362
2901.000			-30.513			-4.359
3002.000			-30.493			-4.356
3100.000			-30.471			-4.353
3200.000			-30.452			-4.350
3301.000			-30.414			-4.345
3400.000			-30.395			-4.342
3500.000			-30.377			-4.340
3602.000			-30.360			-4.337
3701.000			-30.344			-4.335
3800.000			-30.327			-4.332
3901.000			-30.310			-4.330
4000.000			-30.279			-4.326
4100.000			-30.263			-4.323
4201.000			-30.249			-4.321
4300.000			-30.235			-4.319
4401.000			-30.220			-4.317
4502.000			-30.207			-4.315
4600.000			-30.194			-4.313
4700.000			-30.181			-4.312
4801.000			-30.154			-4.308
4900.000			-30.142			-4.306
5000.000			-30.129			-4.304
5102.000			-30.117			-4.302
5201.000			-30.105			-4.301
5300.000			-30.093			-4.299
5401.000			-30.082			-4.297
5500.000			-30.059			-4.294
5600.000			-30.049			-4.293
5701.000			-30.037			-4.291
5800.000			-30.026			-4.289
5902.000			-30.017			-4.288
6001.000			-30.006			-4.287
6100.000			-29.996			-4.285
6201.000			-29.977			-4.282
6300.000			-29.967			-4.281
6400.000			-29.958			-4.280
6501.000			-29.948			-4.278
6600.000			-29.938			-4.277
6701.000			-29.929			-4.276
6802.000			-29.919			-4.274
6900.000			-29.910			-4.273
7000.000			-29.893			-4.270
7101.000			-29.884			-4.269
7200.000			-29.875			-4.268
7300.000			-29.866			-4.267
7401.000			-29.858			-4.265
7501.000			-29.851			-4.264
7601.000			-29.843			-4.263
7701.000			-29.826			-4.261
7800.000			-29.818			-4.260
7900.000			-29.810			-4.259
8001.000			-29.803			-4.258
8100.000			-29.795			-4.256
8200.000			-29.787			-4.255
8302.000			-29.780			-4.254
8401.000			-29.766			-4.252
8500.000			-29.759			-4.251
8601.000			-29.753			-4.250
8700.000			-29.745			-4.249
8800.000			-29.738			-4.248
8901.000			-29.731			-4.247
9000.000			-29.724			-4.246
9102.000			-29.710			-4.244
9201.000			-29.704			-4.243
9300.000			-29.697			-4.242
9401.000			-29.690			-4.241
9500.000			-29.684			-4.241
9600.000			-29.677			-4.240
9701.000			-29.671			-4.239
9800.000			-29.665			-4.238
9901.000			-29.653			-4.236
10002.000			-29.647			-4.235
10100.000			-29.640			-4.234
10200.000			-29.635			-4.234
10301.000			-29.629			-4.233
10400.000			-29.623			-4.232
10500.000			-29.618			-4.231
10601.000			-29.606			-4.229
10701.000			-29.599			-4.228
10801.000			-29.593			-4.228
10901.000			-29.588			-4.227
11000.000			-29.583			-4.226
11100.000			-29.578			-4.225
11201.000			-29.572			-4.225
11300.000			-29.566			-4.224
11400.000			-29.556			-4.222
11502.000			-29.551			-4.222
11601.000			-29.545			-4.221
11700.000			-29.539			-4.220
11801.000			-29.533			-4.219
11900.000			-29.529			-4.218
12000.000			-29.524			-4.218
12101.000			-29.515			-4.216
12200.000			-29.510			-4.216
12302.000			-29.505			-4.215
12401.000			-29.499			-4.214
12500.000			-29.494			-4.213
12601.000			-29.490			-4.213
12700.000			-29.486			-4.212
12800.000			-29.476			-4.211
12901.000			-29.471			-4.210
13000.000			-29.467			-4.210
13101.000			-29.462			-4.209
13202.000			-29.457			-4.208
13300.000			-29.452			-4.207
13400.000			-29.448			-4.207
13501.000			-29.439			-4.206
13600.000			-29.435			-4.205
13700.000			-29.431			-4.204
13801.000			-29.426			-4.204
13901.000			-29.422			-4.203
14001.000			-29.417			-4.202
14101.000			-29.413			-4.202
14200.000			-29.409			-4.201
14300.000			-29.400			-4.200
14401.000			-29.396			-4.199
14500.000			-29.392			-4.199
14600.000			-29.388			-4.198
14702.000			-29.384			-4.198
14801.000			-29.379			-4.197
14900.000			-29.375			-4.196
15001.000			-29.368			-4.195
15100.000			-29.364			-4.195
15200.000			-29.359			-4.194
15301.000			-29.355			-4.194
15400.000			-29.352			-4.193
15501.000			-29.348			-4.193
15601.000			-29.343			-4.192
15701.000			-29.337			-4.191
15801.000			-29.334			-4.191
15900.000			-29.330			-4.190
16000.000			-29.326			-4.189
16101.000			-29.321			-4.189
16200.000			-29.317			-4.188
16300.000			-29.313			-4.188
16402.000			-29.310			-4.187
16501.000			-29.303			-4.186
16600.000			-29.300			-4.186
16701.000			-29.296			-4.185
16800.000			-29.292			-4.185
16900.000			-29.288			-4.184
17001.000			-29.285			-4.184
17100.000			-29.281			-4.183
17201.000			-29.274			-4.182
17302.000			-29.270			-4.181
17400.000			-29.267			-4.181
17500.000			-29.263			-4.180
17601.000			-29.259			-4.180
17700.000			-29.257			-4.180
17800.000			-29.253			-4.179
17901.000			-29.248			-4.178
18001.000			-29.244			-4.178
18101.000			-29.240			-4.177
18201.000			-29.237			-4.177
18300.000			-29.234			-4.176
18400.000			-29.231			-4.176
18501.000			-29.227			-4.175
18600.000			-29.224			-4.175
18701.000			-29.218			-4.174
18801.000			-29.215			-4.174
18901.000			-29.212			-4.173
19001.000			-29.209			-4.173
19100.000			-29.206			-4.172
19200.000			-29.203			-4.172
19301.000			-29.199			-4.171
19400.000			-29.193			-4.170
19500.000			-29.189			-4.170
19602.000			-29.186			-4.169
19701.000			-29.184			-4.169
19800.000			-29.181			-4.169
19901.000			-29.178			-4.168
20000.000			-29.175			-4.168
20100.000			-29.170			-4.167
20201.000			-29.167			-4.167
20300.000			-29.163			-4.166
20401.000			-29.161			-4.166
20502.000			-29.158			-4.165
20600.000			-29.155			-4.165
20700.000			-29.152			-4.165
20801.000			-29.149			-4.164
20900.000			-29.143			-4.163
21000.000			-29.141			-4.163
21101.000			-29.138			-4.163
21201.000			-29.135			-4.162
21301.000			-29.133			-4.162
21401.000			-29.130			-4.161
21500.000			-29.128			-4.161
21600.000			-29.122			-4.160
21701.000			-29.118			-4.160
21800.000			-29.116			-4.159
21901.000			-29.113			-4.159
22001.000			-29.110			-4.159
22101.000			-29.108			-4.158
22201.000			-29.104			-4.158
22300.000			-29.099			-4.157
22400.000			-29.096			-4.157
22501.000			-29.094			-4.156
22600.000			-29.091			-4.156
22700.000			-29.089			-4.156
22802.000			-29.086			-4.155
22901.000			-29.083			-4.155
23000.000			-29.081			-4.154
23101.000			-29.076			-4.154
23200.000			-29.073			-4.153
23300.000			-29.070			-4.153
23401.000			-29.068			-4.153
23500.000			-29.066			-4.152
23601.000			-29.063			-4.152
23702.000			-29.059			-4.151
23800.000			-29.055			-4.151
23900.000			-29.052			-4.150
24001.000			-29.050			-4.150
24100.000			-29.047			-4.150
24200.000			-29.045			-4.149
24301.000			-29.042			-4.149
24401.000			-29.040			-4.149
24501.000			-29.036			-4.148
24601.000			-29.034			-4.148
24700.000			-29.030			-4.147
24800.000			-29.028			-4.147
24901.000			-29.026			-4.147
25000.000			-29.023			-4.146
25101.000			-29.021			-4.146
25201.000			-29.016			-4.145
25301.000			-29.014			-4.145
25401.000			-29.012			-4.145
25500.000			-29.009			-4.144
25600.000			-29.006			-4.144
25701.000			-29.004			-4.143
25800.000			-29.002			-4.143
25900.000			-29.000			-4.143
26002.000			-28.995			-4.142
26101.000			-28.993			-4.142
26200.000			-28.990			-4.141
26301.000			-28.988			-4.141
26400.000			-28.986			-4.141
26500.000			-28.984			-4.141
26601.000			-28.982			-4.140
26700.000			-28.977			-4.140
26801.000			-28.976			-4.139
26902.000			-28.975			-4.139
27001.000			-28.972			-4.139
27100.000			-28.969			-4.138
27201.000			-28.967			-4.138
27300.000			-28.964			-4.138
27400.000			-28.960			-4.137
27501.000			-28.957			-4.137
27600.000			-28.955			-4.136
27701.000			-28.953			-4.136
27802.000			-28.950			-4.136
27900.000			-28.949			-4.136
28000.000			-28.946			-4.135
28101.000			-28.944			-4.135
28200.000			-28.940			-4.134
28301.000			-28.938			-4.134
28400.000			-28.936			-4.134
28501.000			-28.933			-4.133
28602.000			-28.931			-4.133
28701.000			-28.928			-4.133
28800.000			-28.927			-4.132
28901.000			-28.923			-4.132
29000.000			-28.921			-4.132
29100.000			-28.920			-4.131
29201.000			-28.918			-4.131
29300.000			-28.915			-4.131
29401.000			-28.913			-4.130
29502.000			-28.911			-4.130
29600.000			-28.906			-4.129
29700.000			-28.904			-4.129
29801.000			-28.903			-4.129
29900.000			-28.900			-4.129
30000.000			-28.898			-4.128
30101.000			-28.897			-4.128
30201.000			-28.894			-4.128
30301.000			-28.892			-4.127
30401.000			-28.888			-4.127
30500.000			-28.886			-4.127
30600.000			-28.883			-4.126
30701.000			-28.883			-4.126
30800.000			-28.881			-4.126
30900.000			-28.880			-4.126
31002.000			-28.878			-4.125
31101.000			-28.873			-4.125
31200.000			-28.870			-4.124
31301.000			-28.869			-4.124
31400.000			-28.867			-4.124
31501.000			-28.864			-4.123
31600.000			-28.862			-4.123
31700.000			-28.860			-4.123
31801.000			-28.856			-4.122
31901.000			-28.854			-4.122
32001.000			-28.853			-4.122
32101.000			-28.851			-4.122
32200.000			-28.849			-4.121
32300.000			-28.846			-4.121
32401.000			-28.845			-4.121
32500.000			-28.844			-4.121
32600.000			-28.839			-4.120
32702.000			-28.837			-4.120
32801.000			-28.836			-4.119
32900.000			-28.834			-4.119
33001.000			-28.833			-4.119
33100.000			-28.831			-4.119
33200.000			-28.829			-4.118
33301.000			-28.826			-4.118
33400.000			-28.824			-4.118
33501.000			-28.822			-4.117
33602.000			-28.820			-4.117
33700.000			-28.818			-4.117
33800.000			-28.817			-4.117
33901.000			-28.815			-4.116
34000.000			-28.811			-4.116
34100.000			-28.809			-4.116
34201.000			-28.807			-4.115
34301.000			-28.806			-4.115
34401.000			-28.804			-4.115
34501.000			-28.804			-4.115
34600.000			-28.801			-4.114
34701.000			-28.797			-4.114
34800.000			-28.796			-4.114
34900.000			-28.794			-4.113
35001.000			-28.792			-4.113
35101.000			-28.791			-4.113
35201.000			-28.791			-4.113
35301.000			-28.788			-4.113
35400.000			-28.787			-4.112
35500.000			-28.783			-4.112
35601.000			-28.781			-4.112
35700.000			-28.780			-4.111
35800.000			-28.778			-4.111
35902.000			-28.777			-4.111
36001.000			-28.776			-4.111
36101.000			-28.774			-4.111
36201.000			-28.771			-4.110
36300.000			-28.769			-4.110
36400.000			-28.767			-4.110
36501.000			-28.765			-4.109
36600.000			-28.763			-4.109
36700.000			-28.763			-4.109
36802.000			-28.762			-4.109
36901.000			-28.757			-4.108
37000.000			-28.756			-4.108
37101.000			-28.754			-4.108
37200.000			-28.752			-4.107
37300.000			-28.752			-4.107
37401.000			-28.750			-4.107
37500.000			-28.749			-4.107
37601.000			-28.748			-4.107
37702.000			-28.745			-4.106
37800.000			-28.743			-4.106
37901.000			-28.740			-4.106
38000.000			-28.738			-4.105
38100.000			-28.737			-4.105
38201.000			-28.735			-4.105
38300.000			-28.733			-4.105
38401.000			-28.730			-4.104
38502.000			-28.728			-4.104
38601.000			-28.727			-4.104
38700.000			-28.725			-4.104
38801.000			-28.724			-4.103
38900.000			-28.723			-4.103
39000.000			-28.721			-4.103
39101.000			-28.718			-4.103
39201.000			-28.716			-4.102
39301.000			-28.715			-4.102
39402.000			-28.714			-4.102
39500.000			-28.712			-4.102
39600.000			-28.711			-4.102
39701.000			-28.709			-4.101
39800.000			-28.707			-4.101
39900.000			-28.704			-4.101
40001.000			-28.702			-4.100
40101.000			-28.702			-4.100
40201.000			-28.700			-4.100
40301.000			-28.697			-4.100
40400.000			-28.697			-4.100
40500.000			-28.696			-4.099
40601.000			-28.691			-4.099
40700.000			-28.690			-4.099
40800.000			-28.689			-4.098
40902.000			-28.688			-4.098
41001.000			-28.686			-4.098
41101.000			-28.684			-4.098
41200.000			-28.682			-4.097
41300.000			-28.680			-4.097
41401.000			-28.678			-4.097
41500.000			-28.677			-4.097
41600.000			-28.675			-4.096
41702.000			-28.674			-4.096
41801.000			-28.672			-4.096
41900.000			-28.671			-4.096
42001.000			-28.669			-4.096
42100.000			-28.667			-4.095
42200.000			-28.665			-4.095
42301.000			-28.663			-4.095
42400.000			-28.662			-4.095
42501.000			-28.660			-4.094
42602.000			-28.660			-4.094
42701.000			-28.658			-4.094
42800.000			-28.654			-4.093
42901.000			-28.654			-4.093
43000.000			-28.653			-4.093
43100.000			-28.650			-4.093
43201.000			-28.650			-4.093
43300.000			-28.649			-4.093
43401.000			-28.646			-4.092
43502.000			-28.644			-4.092
43600.000			-28.643			-4.092
43700.000			-28.642			-4.092
43801.000			-28.640			-4.091
43900.000			-28.639			-4.091
44000.000			-28.637			-4.091
44101.000			-28.636			-4.091
44201.000			-28.633			-4.090
44302.000			-28.632			-4.090
44400.000			-28.630			-4.090
44500.000			-28.629			-4.090
44601.000			-28.628			-4.090
44700.000			-28.627			-4.090
44800.000			-28.625			-4.089
44901.000			-28.624			-4.089
45001.000			-28.622			-4.089
45101.000			-28.620			-4.089
45201.000			-28.620			-4.089
45300.000			-28.619			-4.088
45400.000			-28.616			-4.088
45501.000			-28.616			-4.088
45600.000			-28.614			-4.088
45700.000			-28.612			-4.087
45802.000			-28.611			-4.087
45901.000			-28.610			-4.087
46000.000			-28.608			-4.087
46101.000			-28.607			-4.087
46200.000			-28.607			-4.087
46300.000			-28.605			-4.086
46401.000			-28.602			-4.086
46500.000			-28.601			-4.086
46601.000			-28.599			-4.086
46702.000			-28.598			-4.085
46800.000			-28.597			-4.085
46900.000			-28.596			-4.085
47001.000			-28.594			-4.085
47100.000			-28.592			-4.085
47200.000			-28.591			-4.084
47301.000			-28.590			-4.084
47401.000			-28.590			-4.084
47502.000			-28.588			-4.084
47601.000			-28.586			-4.084
47700.000			-28.584			-4.083
47801.000			-28.583			-4.083
47900.000			-28.581			-4.083
48000.000			-28.580			-4.083
48101.000			-28.579			-4.083
48200.000			-28.578			-4.083
48301.000			-28.578			-4.083
48402.000			-28.576			-4.082
48500.000			-28.574			-4.082
48600.000			-28.571			-4.082
48701.000			-28.569			-4.081
48800.000			-28.568			-4.081
48900.000			-28.567			-4.081
49001.000			-28.566			-4.081
49101.000			-28.565			-4.081
49201.000			-28.564			-4.081
49302.000			-28.561			-4.080
49400.000			-28.559			-4.080
49500.000			-28.559			-4.080
49601.000			-28.558			-4.080
49700.000			-28.557			-4.080
49800.000			-28.557			-4.080
49901.000			-28.556			-4.079
50001.000			-28.554			-4.079
50101.000			-28.551			-4.079
50201.000			-28.550			-4.079
50300.000			-28.549			-4.078
50400.000			-28.548			-4.078
50501.000			-28.546			-4.078
50600.000			-28.546			-4.078
50701.000			-28.545			-4.078
50801.000			-28.542			-4.077
50901.000			-28.540			-4.077
51001.000			-28.540			-4.077
51100.000			-28.538			-4.077
51200.000			-28.536			-4.077
51301.000			-28.536			-4.077
51400.000			-28.535			-4.076
51500.000			-28.532			-4.076
51602.000			-28.531			-4.076
51701.000			-28.530			-4.076
51800.000			-28.529			-4.076
51901.000			-28.527			-4.075
52000.000			-28.526			-4.075
52100.000			-28.525			-4.075
52201.000			-28.524			-4.075
52300.000			-28.522			-4.075
52401.000			-28.520			-4.074
52502.000			-28.519			-4.074
52600.000			-28.518			-4.074
52700.000			-28.517			-4.074
52801.000			-28.515			-4.074
52900.000			-28.515			-4.074
53000.000			-28.512			-4.073
53101.000			-28.510			-4.073
53201.000			-28.509			-4.073
53301.000			-28.509			-4.073
53401.000			-28.508			-4.073
53500.000			-28.506			-4.072
53600.000			-28.504			-4.072
53701.000			-28.502			-4.072
53800.000			-28.501			-4.072
53901.000			-28.501			-4.072
54001.000			-28.499			-4.071
54101.000			-28.498			-4.071
54201.000			-28.497			-4.071
54300.000			-28.496			-4.071
54400.000			-28.494			-4.071
54501.000			-28.494			-4.071
54600.000			-28.492			-4.070
54700.000			-28.490			-4.070
54802.000			-28.488			-4.070
54901.000			-28.488			-4.070
55001.000			-28.487			-4.070
55101.000			-28.486			-4.069
55200.000			-28.484			-4.069
55300.000			-28.483			-4.069
55401.000			-28.482			-4.069
55500.000			-28.480			-4.069
55600.000			-28.479			-4.068
55702.000			-28.479			-4.068
55801.000			-28.477			-4.068
55900.000			-28.475			-4.068
56001.000			-28.474			-4.068
56100.000			-28.473			-4.068
56200.000			-28.472			-4.067
56301.000			-28.471			-4.067
56400.000			-28.469			-4.067
56501.000			-28.468			-4.067
56602.000			-28.466			-4.067
56700.000			-28.464			-4.066
56800.000			-28.464			-4.066
56901.000			-28.463			-4.066
57000.000			-28.462			-4.066
57101.000			-28.460			-4.066
57200.000			-28.460			-4.066
57301.000			-28.458			-4.065
57402.000			-28.457			-4.065
57501.000			-28.456			-4.065
57600.000			-28.455			-4.065
57701.000			-28.453			-4.065
57800.000			-28.452			-4.065
57900.000			-28.451			-4.064
58001.000			-28.449			-4.064
58100.000			-28.448			-4.064
58201.000			-28.447			-4.064
58302.000			-28.446			-4.064
58400.000			-28.445			-4.064
58500.000			-28.444			-4.063
58601.000			-28.444			-4.063
58700.000			-28.443			-4.063
58800.000			-28.440			-4.063
58901.000			-28.439			-4.063
59001.000			-28.438			-4.063
59101.000			-28.438			-4.063
59201.000			-28.437			-4.062
59300.000			-28.435			-4.062
59400.000			-28.434			-4.062
59501.000			-28.433			-4.062
59600.000			-28.431			-4.062
59700.000			-28.431			-4.062
59802.000			-28.430			-4.061
59901.000			-28.429			-4.061
60000.000			-28.428			-4.061
60101.000			-28.427			-4.061
60200.000			-28.427			-4.061
60301.000			-28.424			-4.061
60400.000			-28.422			-4.060
60500.000			-28.421			-4.060
60602.000			-28.421			-4.060
60701.000			-28.420			-4.060
60800.000			-28.419			-4.060
60901.000			-28.418			-4.060
61000.000			-28.415			-4.059
61100.000			-28.414			-4.059
61201.000			-28.414			-4.059
61300.000			-28.412			-4.059
61401.000			-28.411			-4.059
61502.000			-28.410			-4.059
61600.000			-28.410			-4.059
61700.000			-28.407			-4.058
61801.000			-28.406			-4.058
61900.000			-28.405			-4.058
62000.000			-28.405			-4.058
62101.000			-28.403			-4.058
62201.000			-28.403			-4.058
62301.000			-28.402			-4.057
62401.000			-28.401			-4.057
62500.000			-28.399			-4.057
62600.000			-28.399			-4.057
62701.000			-28.397			-4.057
62800.000			-28.397			-4.057
62900.000			-28.396			-4.057
63002.000			-28.395			-4.056
63101.000			-28.394			-4.056
63200.000			-28.393			-4.056
63301.000			-28.393			-4.056
63400.000			-28.391			-4.056
63501.000			-28.391			-4.056
63600.000			-28.390			-4.056
63700.000			-28.389			-4.056
63801.000			-28.388			-4.055
63901.000			-28.387			-4.055
64001.000			-28.385			-4.055
64101.000			-28.384			-4.055
64200.000			-28.383			-4.055
64300.000			-28.382			-4.055
64401.000			-28.382			-4.055
64500.000			-28.381			-4.054
64600.000			-28.379			-4.054
64702.000			-28.379			-4.054
64801.000			-28.377			-4.054
64900.000			-28.377			-4.054
65001.000			-28.375			-4.054
65100.000			-28.375			-4.054
65200.000			-28.374			-4.053
65301.000			-28.372			-4.053
65400.000			-28.370			-4.053
65501.000			-28.370			-4.053
65602.000			-28.370			-4.053
65700.000			-28.368			-4.053
65800.000			-28.366			-4.052
65901.000			-28.365			-4.052
66000.000			-28.364			-4.052
66100.000			-28.363			-4.052
66201.000			-28.362			-4.052
66301.000			-28.361			-4.052
66401.000			-28.359			-4.051
66501.000			-28.358			-4.051
66600.000			-28.358			-4.051
66701.000			-28.357			-4.051
66800.000			-28.356			-4.051
66900.000			-28.354			-4.051
67001.000			-28.353			-4.050
67100.000			-28.351			-4.050
67201.000			-28.350			-4.050
67302.000			-28.350			-4.050
67400.000			-28.349			-4.050
67500.000			-28.348			-4.050
67601.000			-28.347			-4.050
67700.000			-28.346			-4.049
67800.000			-28.345			-4.049
67901.000			-28.345			-4.049
68001.000			-28.344			-4.049
68101.000			-28.342			-4.049
68201.000			-28.341			-4.049
68300.000			-28.339			-4.048
68400.000			-28.339			-4.048
68501.000			-28.337			-4.048
68600.000			-28.336			-4.048
68700.000			-28.335			-4.048
68802.000			-28.336			-4.048
68901.000			-28.335			-4.048
69001.000			-28.333			-4.048
69101.000			-28.331			-4.047
69200.000			-28.331			-4.047
69300.000			-28.330			-4.047
69401.000			-28.329			-4.047
69500.000			-28.328			-4.047
69600.000			-28.327			-4.047
69702.000			-28.326			-4.047
69801.000			-28.325			-4.046
69901.000			-28.323			-4.046
70000.000			-28.322			-4.046
70100.000			-28.322			-4.046
70201.000			-28.322			-4.046
70300.000			-28.321			-4.046
70400.000			-28.320			-4.046
70502.000			-28.319			-4.046
70601.000			-28.318			-4.045
70700.000			-28.317			-4.045
70801.000			-28.315			-4.045
70900.000			-28.314			-4.045
71000.000			-28.313			-4.045
71101.000			-28.314			-4.045
71200.000			-28.312			-4.045
71301.000			-28.312			-4.045
71402.000			-28.312			-4.045
71500.000			-28.310			-4.044
71600.000			-28.309			-4.044
71701.000			-28.308			-4.044
71800.000			-28.307			-4.044
71900.000			-28.306			-4.044
72001.000			-28.305			-4.044
72101.000			-28.304			-4.043
72201.000			-28.304			-4.043
72301.000			-28.303			-4.043
72400.000			-28.301			-4.043
72500.000			-28.300			-4.043
72601.000			-28.300			-4.043
72700.000			-28.298			-4.043
72800.000			-28.299			-4.043
72902.000			-28.298			-4.043
73001.000			-28.298			-4.043
73101.000			-28.298			-4.043
73200.000			-28.295			-4.042
73300.000			-28.294			-4.042
73401.000			-28.292			-4.042
73500.000			-28.292			-4.042
73600.000			-28.291			-4.042
73701.000			-28.290			-4.041
73801.000			-28.288			-4.041
73901.000			-28.288			-4.041
74001.000			-28.287			-4.041
74100.000			-28.286			-4.041
74200.000			-28.285			-4.041
74301.000			-28.284			-4.041
74400.000			-28.283			-4.040
74500.000			-28.282			-4.040
74602.000			-28.281			-4.040
74701.000			-28.281			-4.040
74800.000			-28.280			-4.040
74901.000			-28.279			-4.040
75000.000			-28.278			-4.040
75100.000			-28.277			-4.040
75201.000			-28.277			-4.040
75300.000			-28.276			-4.039
75400.000			-28.275			-4.039
75502.000			-28.274			-4.039
75601.000			-28.273			-4.039
75700.000			-28.272			-4.039
75801.000			-28.271			-4.039
75900.000			-28.270			-4.039
76000.000			-28.269			-4.038
76101.000			-28.268			-4.038
76200.000			-28.267			-4.038
76302.000			-28.267			-4.038
76401.000			-28.266			-4.038
76500.000			-28.264			-4.038
76601.000			-28.264			-4.038
76700.000			-28.263			-4.038
76800.000			-28.261			-4.037
76901.000			-28.260			-4.037
77000.000			-28.260			-4.037
77100.000			-28.259			-4.037
77202.000			-28.258			-4.037
77301.000			-28.257			-4.037
77400.000			-28.256			-4.037
77501.000			-28.255			-4.036
77600.000			-28.255			-4.036
77700.000			-28.254			-4.036
77801.000			-28.251			-4.036
77900.000			-28.252			-4.036
78001.000			-28.252			-4.036
78102.000			-28.251			-4.036
78201.000			-28.250			-4.036
78300.000			-28.249			-4.036
78401.000			-28.248			-4.035
78500.000			-28.246			-4.035
78600.000			-28.246			-4.035
78701.000			-28.245			-4.035
78800.000			-28.244			-4.035
78901.000			-28.243			-4.035
79002.000			-28.243			-4.035
79100.000			-28.243			-4.035
79200.000			-28.240			-4.034
79301.000			-28.240			-4.034
79400.000			-28.239			-4.034
79501.000			-28.238			-4.034
79600.000			-28.237			-4.034
79700.000			-28.238			-4.034
79802.000			-28.236			-4.034
79901.000			-28.235			-4.034
80000.000			-28.234			-4.033
80101.000			-28.233			-4.033
80200.000			-28.232			-4.033
80300.000			-28.231			-4.033
80401.000			-28.231			-4.033
80500.000			-28.231			-4.033
80601.000			-28.229			-4.033
80702.000			-28.228			-4.033
80800.000			-28.226			-4.032
80900.000			-28.227			-4.032
81001.000			-28.226			-4.032
81100.000			-28.225			-4.032
81200.000			-28.224			-4.032
81301.000			-28.223			-4.032
81401.000			-28.222			-4.032
81501.000			-28.221			-4.032
81601.000			-28.221			-4.032
81700.000			-28.220			-4.031
81800.000			-28.219			-4.031
81901.000			-28.218			-4.031
82000.000			-28.218			-4.031
82100.000			-28.217			-4.031
82202.000			-28.216			-4.031
82301.000			-28.216			-4.031
82400.000			-28.215			-4.031
82501.000			-28.214			-4.031
82600.000			-28.213			-4.030
82701.000			-28.212			-4.030
82800.000			-28.212			-4.030
82900.000			-28.211			-4.030
83002.000			-28.210			-4.030
83101.000			-28.208			-4.030
83200.000			-28.208			-4.030
83301.000			-28.207			-4.030
83400.000			-28.206			-4.029
83500.000			-28.206			-4.029
83601.000			-28.205			-4.029
83700.000			-28.203			-4.029
83801.000			-28.202			-4.029
83902.000			-28.201			-4.029
84000.000			-28.202			-4.029
84100.000			-28.201			-4.029
84201.000			-28.199			-4.028
84300.000			-28.199			-4.028
84400.000			-28.199			-4.028
84501.000			-28.198			-4.028
84601.000			-28.196			-4.028
84701.000			-28.195			-4.028
84802.000			-28.195			-4.028
84900.000			-28.194			-4.028
85000.000			-28.194			-4.028
85101.000			-28.192			-4.027
85200.000			-28.191			-4.027
85300.000			-28.191			-4.027
85401.000			-28.189			-4.027
85501.000			-28.189			-4.027
85601.000			-28.189			-4.027
85701.000			-28.188			-4.027
85800.000			-28.187			-4.027
85901.000			-28.185			-4.026
86000.000			-28.185			-4.026
86100.000			-28.185			-4.026
86201.000			-28.184			-4.026
86301.000			-28.184			-4.026
86401.000			-28.183			-4.026
86502.000			-28.182			-4.026
86600.000			-28.180			-4.026
86700.000			-28.180			-4.026
86801.000			-28.180			-4.026
86900.000			-28.180			-4.026
87000.000			-28.178			-4.025
87101.000			-28.177			-4.025
87201.000			-28.177			-4.025
87301.000			-28.174			-4.025
87401.000			-28.174			-4.025
87500.000			-28.174			-4.025
87600.000			-28.174			-4.025
87701.000			-28.173			-4.025
87800.000			-28.172			-4.025
87900.000			-28.170			-4.024
88002.000			-28.170			-4.024
88101.000			-28.170			-4.024
88200.000			-28.169			-4.024
88301.000			-28.168			-4.024
88400.000			-28.168			-4.024
88500.000			-28.167			-4.024
88601.000			-28.167			-4.024
88700.000			-28.165			-4.024
88800.000			-28.164			-4.023
88902.000			-28.163			-4.023
89001.000			-28.162			-4.023
89101.000			-28.162			-4.023
89200.000			-28.162			-4.023
89300.000			-28.161			-4.023
89401.000			-28.161			-4.023
89500.000			-28.159			-4.023
89600.000			-28.159			-4.023
89702.000			-28.158			-4.023
89801.000			-28.157			-4.022
89900.000			-28.157			-4.022
90001.000			-28.155			-4.022
90100.000			-28.154			-4.022
90200.000			-28.154			-4.022
90301.000			-28.154			-4.022
90400.000			-28.153			-4.022
90501.000			-28.152			-4.022
90602.000			-28.152			-4.022
90701.000			-28.151			-4.022
90800.000			-28.150			-4.021
90901.000			-28.149			-4.021
91000.000			-28.149			-4.021
91100.000			-28.147			-4.021
91201.000			-28.146			-4.021
91300.000			-28.146			-4.021
91401.000			-28.145			-4.021
91502.000			-28.145			-4.021
91600.000			-28.144			-4.021
91700.000			-28.143			-4.020
91801.000			-28.143			-4.020
91900.000			-28.142			-4.020
92000.000			-28.142			-4.020
92101.000			-28.140			-4.020
92201.000			-28.140			-4.020
92302.000			-28.139			-4.020
92400.000			-28.139			-4.020
92500.000			-28.138			-4.020
92601.000			-28.138			-4.020
92700.000			-28.137			-4.020
92800.000			-28.136			-4.019
92901.000			-28.135			-4.019
93001.000			-28.134			-4.019
93101.000			-28.132			-4.019
93201.000			-28.133			-4.019
93300.000			-28.131			-4.019
93400.000			-28.131			-4.019
93501.000			-28.132			-4.019
93600.000			-28.131			-4.019
93700.000			-28.130			-4.019
93802.000			-28.127			-4.018
93901.000			-28.126			-4.018
94001.000			-28.127			-4.018
94101.000			-28.127			-4.018
94200.000			-28.126			-4.018
94300.000			-28.125			-4.018
94401.000			-28.125			-4.018
94500.000			-28.124			-4.018
94600.000			-28.122			-4.017
94702.000			-28.121			-4.017
94801.000			-28.121			-4.017
94900.000			-28.121			-4.017
95001.000			-28.120			-4.017
95100.000			-28.119			-4.017
95200.000			-28.119			-4.017
95301.000			-28.119			-4.017
95400.000			-28.117			-4.017
95502.000			-28.116			-4.017
95601.000			-28.115			-4.016
95700.000			-28.114			-4.016
95801.000			-28.114			-4.016
95900.000			-28.114			-4.016
96000.000			-28.113			-4.016
96101.000			-28.112			-4.016
96200.000			-28.111			-4.016
96301.000			-28.110			-4.016
96402.000			-28.109			-4.016
96500.000			-28.108			-4.015
96600.000			-28.108			-4.015
96701.000			-28.107			-4.015
96800.000			-28.106			-4.015
96900.000			-28.105			-4.015
97001.000			-28.105			-4.015
97101.000			-28.104			-4.015
97201.000			-28.104			-4.015
97301.000			-28.103			-4.015
97400.000			-28.102			-4.015
97500.000			-28.101			-4.014
97601.000			-28.102			-4.015
97700.000			-28.102			-4.015
97800.000			-28.101			-4.014
97902.000			-28.099			-4.014
98001.000			-28.098			-4.014
98101.000			-28.097			-4.014
98201.000			-28.098			-4.014
98300.000			-28.097			-4.014
98400.000			-28.096			-4.014
98501.000			-28.094			-4.013
98600.000			-28.094			-4.013
98701.000			-28.095			-4.014
98801.000			-28.094			-4.013
98901.000			-28.093			-4.013
99001.000			-28.092			-4.013
99100.000			-28.091			-4.013
99200.000			-28.091			-4.013
99301.000			-28.089			-4.013
99400.000			-28.089			-4.013
99500.000			-28.089			-4.013
99601.000			-28.087			-4.012
99701.000			-28.088			-4.013
99801.000			-28.088			-4.013
99901.000			-28.086			-4.012
100000.000			-28.085			-4.012
100100.000			-28.084			-4.012
100201.000			-28.084			-4.012
100300.000			-28.083			-4.012
100400.000			-28.083			-4.012
100502.000			-28.083			-4.012
100601.000			-28.082			-4.012
100700.000			-28.081			-4.012
100801.000			-28.080			-4.011
100900.000			-28.080			-4.011
101000.000			-28.080			-4.011
101101.000			-28.077			-4.011
101200.000			-28.076			-4.011
101300.000			-28.076			-4.011
101402.000			-28.075			-4.011
101501.000			-28.075			-4.011
101600.000			-28.075			-4.011
101701.000			-28.074			-4.011
101800.000			-28.074			-4.011
101901.000			-28.072			-4.010
102000.000			-28.071			-4.010
102100.000			-28.070			-4.010
102202.000			-28.070			-4.010
102301.000			-28.069			-4.010
102400.000			-28.069			-4.010
102501.000			-28.070			-4.010
102600.000			-28.068			-4.010
102700.000			-28.068			-4.010
102801.000			-28.066			-4.009
102900.000			-28.064			-4.009
103001.000			-28.065			-4.009
103102.000			-28.065			-4.009
103201.000			-28.064			-4.009
103300.000			-28.063			-4.009
103401.000			-28.062			-4.009
103500.000			-28.061			-4.009
103600.000			-28.061			-4.009
103701.000			-28.060			-4.009
103800.000			-28.060			-4.009
103901.000			-28.060			-4.009
104002.000			-28.060			-4.009
104100.000			-28.058			-4.008
104200.000			-28.058			-4.008
104301.000			-28.058			-4.008
104400.000			-28.057			-4.008
104500.000			-28.056			-4.008
104601.000			-28.055			-4.008
104701.000			-28.055			-4.008
104801.000			-28.054			-4.008
104901.000			-28.053			-4.008
105000.000			-28.053			-4.008
105101.000			-28.053			-4.008
105200.000			-28.053			-4.008
105300.000			-28.051			-4.007
105401.000			-28.051			-4.007
105500.000			-28.050			-4.007
105601.000			-28.049			-4.007
105702.000			-28.048			-4.007
105800.000			-28.047			-4.007
105900.000			-28.046			-4.007
106001.000			-28.045			-4.006
106100.000			-28.045			-4.006
106200.000			-28.045			-4.006
106301.000			-28.044			-4.006
106401.000			-28.043			-4.006
106501.000			-28.041			-4.006
106601.000			-28.040			-4.006
106700.000			-28.040			-4.006
106800.000			-28.040			-4.006
106901.000			-28.038			-4.005
107000.000			-28.039			-4.006
107100.000			-28.038			-4.005
107201.000			-28.037			-4.005
107301.000			-28.036			-4.005
107401.000			-28.036			-4.005
107501.000			-28.035			-4.005
107600.000			-28.035			-4.005
107700.000			-28.032			-4.005
107801.000			-28.031			-4.004
107900.000			-28.031			-4.004
108000.000			-28.031			-4.004
108102.000			-28.030			-4.004
108201.000			-28.030			-4.004
108301.000			-28.029			-4.004
108400.000			-28.029			-4.004
108500.000			-28.028			-4.004
108601.000			-28.027			-4.004
108700.000			-28.027			-4.004
108800.000			-28.026			-4.004
108901.000			-28.026			-4.004
109001.000			-28.026			-4.004
109101.000			-28.026			-4.004
109201.000			-28.024			-4.003
109300.000			-28.024			-4.003
109400.000			-28.022			-4.003
109501.000			-28.022			-4.003
109600.000			-28.022			-4.003
109700.000			-28.021			-4.003
109802.000			-28.020			-4.003
109901.000			-28.020			-4.003
110000.000			-28.019			-4.003
110101.000			-28.018			-4.003
110200.000			-28.018			-4.003
110300.000			-28.019			-4.003
110401.000			-28.017			-4.002
110500.000			-28.016			-4.002
110601.000			-28.016			-4.002
110702.000			-28.015			-4.002
110801.000			-28.015			-4.002
110900.000			-28.014			-4.002
111001.000			-28.014			-4.002
111100.000			-28.013			-4.002
111200.000			-28.013			-4.002
111301.000			-28.013			-4.002
111401.000			-28.010			-4.001
111502.000			-28.010			-4.001
111601.000			-28.009			-4.001
111700.000			-28.008			-4.001
111801.000			-28.008			-4.001
111900.000			-28.008			-4.001
112000.000			-28.008			-4.001
112101.000			-28.007			-4.001
112200.000			-28.007			-4.001
112301.000			-28.006			-4.001
112402.000			-28.004			-4.001
112500.000			-28.004			-4.001
112600.000			-28.004			-4.001
112701.000			-28.003			-4.000
112800.000			-28.004			-4.001
112900.000			-28.003			-4.000
113001.000			-28.002			-4.000
113101.000			-28.001			-4.000
113201.000			-28.000			-4.000
113301.000			-27.999			-4.000
113400.000			-27.999			-4.000
113500.000			-27.998			-4.000
113601.000			-27.997			-4.000
113700.000			-27.996			-3.999
113800.000			-27.996			-3.999
113902.000			-27.996			-3.999
114001.000			-27.995			-3.999
114101.000			-27.994			-3.999
114201.000			-27.994			-3.999
114300.000			-27.993			-3.999
114400.000			-27.993			-3.999
114501.000			-27.991			-3.999
114600.000			-27.991			-3.999
114701.000			-27.991			-3.999
114801.000			-27.991			-3.999
114901.000			-27.990			-3.999
115002.000			-27.990			-3.999
115100.000			-27.990			-3.999
115200.000			-27.990			-3.999
115301.000			-27.989			-3.998
115400.000			-27.988			-3.998
115500.000			-27.987			-3.998
115601.000			-27.986			-3.998
115701.000			-27.985			-3.998
115801.000			-27.985			-3.998
115902.000			-27.983			-3.998
116000.000			-27.984			-3.998
116100.000			-27.984			-3.998
116201.000			-27.983			-3.998
116300.000			-27.982			-3.997
116400.000			-27.981			-3.997
116501.000			-27.981			-3.997
116601.000			-27.980			-3.997
116701.000			-27.980			-3.997
116802.000			-27.978			-3.997
116900.000			-27.977			-3.997
117000.000			-27.978			-3.997
117101.000			-27.978			-3.997
117200.000			-27.976			-3.997
117300.000			-27.976			-3.997
117401.000			-27.975			-3.996
117501.000			-27.975			-3.996
117601.000			-27.974			-3.996
117702.000			-27.973			-3.996
117800.000			-27.972			-3.996
117901.000			-27.973			-3.996
118000.000			-27.973			-3.996
118100.000			-27.971			-3.996
118201.000			-27.970			-3.996
118300.000			-27.970			-3.996
118401.000			-27.970			-3.996
118502.000			-27.969			-3.996
118601.000			-27.970			-3.996
118700.000			-27.968			-3.995
118801.000			-27.968			-3.995
118900.000			-27.967			-3.995
119000.000			-27.967			-3.995
119101.000			-27.967			-3.995
119200.000			-27.967			-3.995
119300.000			-27.966			-3.995
119402.000			-27.963			-3.995
119501.000			-27.963			-3.995
119600.000			-27.963			-3.995
119701.000			-27.962			-3.995
119800.000			-27.962			-3.995
119900.000			-27.961			-3.994
120001.000			-27.961			-3.994
120100.000			-27.958			-3.994
120201.000			-27.958			-3.994
120302.000			-27.959			-3.994
120401.000			-27.958			-3.994
120500.000			-27.957			-3.994
120601.000			-27.956			-3.994
120700.000			-27.955			-3.994
120800.000			-27.955			-3.994
120901.000			-27.955			-3.994
121000.000			-27.956			-3.994
121102.000			-27.955			-3.994
121201.000			-27.954			-3.993
121300.000			-27.954			-3.993
121401.000			-27.953			-3.993
121500.000			-27.953			-3.993
121600.000			-27.951			-3.993
121701.000			-27.951			-3.993
121800.000			-27.952			-3.993
121901.000			-27.952			-3.993
122002.000			-27.951			-3.993
122101.000			-27.949			-3.993
122200.000			-27.949			-3.993
122301.000			-27.948			-3.993
122400.000			-27.948			-3.993
122500.000			-27.947			-3.992
122601.000			-27.946			-3.992
122700.000			-27.946			-3.992
122801.000			-27.946			-3.992
122902.000			-27.946			-3.992
123000.000			-27.945			-3.992
123100.000			-27.944			-3.992
123201.000			-27.943			-3.992
123300.000			-27.942			-3.992
123400.000			-27.942			-3.992
123501.000			-27.941			-3.992
123600.000			-27.942			-3.992
123701.000			-27.942			-3.992
123802.000			-27.940			-3.991
123900.000			-27.938			-3.991
124000.000			-27.938			-3.991
124101.000			-27.939			-3.991
124200.000			-27.938			-3.991
124301.000			-27.938			-3.991
124400.000			-27.937			-3.991
124500.000			-27.938			-3.991
124602.000			-27.937			-3.991
124701.000			-27.937			-3.991
124800.000			-27.936			-3.991
124901.000			-27.936			-3.991
125000.000			-27.935			-3.991
125100.000			-27.935			-3.991
125201.000			-27.933			-3.990
125300.000			-27.933			-3.990
125401.000			-27.933			-3.990
125502.000			-27.933			-3.990
125601.000			-27.933			-3.990
125700.000			-27.933			-3.990
125801.000			-27.932			-3.990
125900.000			-27.931			-3.990
126000.000			-27.931			-3.990
126101.000			-27.931			-3.990
126200.000			-27.930			-3.990
126301.000			-27.929			-3.990
126402.000			-27.929			-3.990
126500.000			-27.929			-3.990
126600.000			-27.927			-3.990
126701.000			-27.927			-3.990
126800.000			-27.926			-3.989
126900.000			-27.927			-3.990
127001.000			-27.927			-3.990
127100.000			-27.926			-3.989
127201.000			-27.926			-3.989
127302.000			-27.925			-3.989
127400.000			-27.924			-3.989
127501.000			-27.924			-3.989
127600.000			-27.924			-3.989
127700.000			-27.922			-3.989
127801.000			-27.922			-3.989
127900.000			-27.922			-3.989
128000.000			-27.921			-3.989
128102.000			-27.922			-3.989
128201.000			-27.920			-3.989
128300.000			-27.919			-3.988
128401.000			-27.919			-3.988
128500.000			-27.919			-3.988
128600.000			-27.918			-3.988
128701.000			-27.918			-3.988
128800.000			-27.918			-3.988
128900.000			-27.916			-3.988
129002.000			-27.916			-3.988
129101.000			-27.916			-3.988
129200.000			-27.915			-3.988
129301.000			-27.915			-3.988
129400.000			-27.915			-3.988
129500.000			-27.915			-3.988
129601.000			-27.913			-3.988
129700.000			-27.913			-3.988
129800.000			-27.912			-3.987
129902.000			-27.911			-3.987
130001.000			-27.910			-3.987
130100.000			-27.909			-3.987
130201.000			-27.909			-3.987
130300.000			-27.909			-3.987
130400.000			-27.909			-3.987
130501.000			-27.908			-3.987
130600.000			-27.907			-3.987
130702.000			-27.907			-3.987
130801.000			-27.905			-3.986
130901.000			-27.905			-3.986
131001.000			-27.903			-3.986
131100.000			-27.903			-3.986
131200.000			-27.904			-3.986
131301.000			-27.903			-3.986
131400.000			-27.903			-3.986
131500.000			-27.902			-3.986
131602.000			-27.902			-3.986
131701.000			-27.901			-3.986
131801.000			-27.899			-3.986
131901.000			-27.900			-3.986
132000.000			-27.901			-3.986
132100.000			-27.900			-3.986
132201.000			-27.899			-3.986
132300.000			-27.899			-3.986
132400.000			-27.899			-3.986
132501.000			-27.898			-3.985
132601.000			-27.896			-3.985
132701.000			-27.895			-3.985
132801.000			-27.896			-3.985
132900.000			-27.895			-3.985
133000.000			-27.896			-3.985
133101.000			-27.896			-3.985
133200.000			-27.894			-3.985
133300.000			-27.895			-3.985
133401.000			-27.895			-3.985
133501.000			-27.894			-3.985
133601.000			-27.894			-3.985
133702.000			-27.892			-3.985
133800.000			-27.891			-3.984
133901.000			-27.891			-3.984
134000.000			-27.891			-3.984
134100.000			-27.890			-3.984
134201.000			-27.889			-3.984
134300.000			-27.889			-3.984
134400.000			-27.890			-3.984
134502.000			-27.889			-3.984
134601.000			-27.887			-3.984
134701.000			-27.887			-3.984
134801.000			-27.887			-3.984
134900.000			-27.887			-3.984
135000.000			-27.887			-3.984
135101.000			-27.885			-3.984
135200.000			-27.884			-3.983
135300.000			-27.884			-3.983
135401.000			-27.884			-3.983
135501.000			-27.884			-3.983
135601.000			-27.883			-3.983
135702.000			-27.882			-3.983
135800.000			-27.882			-3.983
135900.000			-27.881			-3.983
136001.000			-27.881			-3.983
136100.000			-27.881			-3.983
136200.000			-27.881			-3.983
136301.000			-27.879			-3.983
136400.000			-27.878			-3.983
136501.000			-27.879			-3.983
136602.000			-27.879			-3.983
136701.000			-27.878			-3.983
136800.000			-27.876			-3.982
136901.000			-27.876			-3.982
137000.000			-27.876			-3.982
137101.000			-27.876			-3.982
137200.000			-27.875			-3.982
137300.000			-27.875			-3.982
137401.000			-27.875			-3.982
137501.000			-27.874			-3.982
137601.000			-27.873			-3.982
137702.000			-27.872			-3.982
137800.000			-27.872			-3.982
137900.000			-27.872			-3.982
138001.000			-27.872			-3.982
138100.000			-27.871			-3.982
138200.000			-27.870			-3.981
138301.000			-27.871			-3.982
138400.000			-27.869			-3.981
138501.000			-27.868			-3.981
138602.000			-27.869			-3.981
138701.000			-27.868			-3.981
138800.000			-27.868			-3.981
138901.000			-27.867			-3.981
139000.000			-27.866			-3.981
139100.000			-27.865			-3.981
139201.000			-27.866			-3.981
139300.000			-27.864			-3.981
139400.000			-27.864			-3.981
139502.000			-27.863			-3.980
139601.000			-27.863			-3.980
139701.000			-27.862			-3.980
139801.000			-27.863			-3.980
139900.000			-27.861			-3.980
140000.000			-27.861			-3.980
140101.000			-27.861			-3.980
140200.000			-27.860			-3.980
140301.000			-27.859			-3.980
140400.000			-27.859			-3.980
140501.000			-27.857			-3.980
140602.000			-27.858			-3.980
140701.000			-27.859			-3.980
140800.000			-27.858			-3.980
140901.000			-27.858			-3.980
141000.000			-27.857			-3.980
141100.000			-27.857			-3.980
141201.000			-27.855			-3.979
141300.000			-27.855			-3.979
141400.000			-27.855			-3.979
141502.000			-27.854			-3.979
141601.000			-27.854			-3.979
141700.000			-27.852			-3.979
141801.000			-27.852			-3.979
141900.000			-27.853			-3.979
142000.000			-27.852			-3.979
142101.000			-27.850			-3.979
142200.000			-27.850			-3.979
142300.000			-27.850			-3.979
142402.000			-27.849			-3.978
142501.000			-27.849			-3.978
142601.000			-27.849			-3.978
142701.000			-27.848			-3.978
142800.000			-27.847			-3.978
142900.000			-27.847			-3.978
143001.000			-27.847			-3.978
143100.000			-27.846			-3.978
143200.000			-27.846			-3.978
143301.000			-27.846			-3.978
143401.000			-27.844			-3.978
143502.000			-27.844			-3.978
143601.000			-27.844			-3.978
143700.000			-27.844			-3.978
143801.000			-27.843			-3.978
143900.000			-27.843			-3.978
144000.000			-27.842			-3.977
144101.000			-27.842			-3.977
144200.000			-27.842			-3.977
144300.000			-27.841			-3.977
144402.000			-27.839			-3.977
144501.000			-27.839			-3.977
144600.000			-27.840			-3.977
144701.000			-27.840			-3.977
144800.000			-27.839			-3.977
144900.000			-27.838			-3.977
145001.000			-27.837			-3.977
145100.000			-27.836			-3.977
145200.000			-27.836			-3.977
145302.000			-27.837			-3.977
145401.000			-27.837			-3.977
145501.000			-27.836			-3.977
145601.000			-27.834			-3.976
145700.000			-27.834			-3.976
145800.000			-27.833			-3.976
145901.000			-27.833			-3.976
146000.000			-27.832			-3.976
146100.000			-27.831			-3.976
146201.000			-27.830			-3.976
146301.000			-27.832			-3.976
146401.000			-27.831			-3.976
146501.000			-27.830			-3.976
146600.000			-27.829			-3.976
146701.000			-27.829			-3.976
146800.000			-27.828			-3.975
146900.000			-27.828			-3.975
147001.000			-27.826			-3.975
147100.000			-27.827			-3.975
147200.000			-27.827			-3.975
147302.000			-27.826			-3.975
147401.000			-27.826			-3.975
147500.000			-27.826			-3.975
147601.000			-27.826			-3.975
147700.000			-27.826			-3.975
147800.000			-27.824			-3.975
147901.000			-27.824			-3.975
148000.000			-27.824			-3.975
148100.000			-27.823			-3.975
148202.000			-27.823			-3.975
148301.000			-27.822			-3.975
148401.000			-27.821			-3.974
148501.000			-27.820			-3.974
148600.000			-27.820			-3.974
148700.000			-27.819			-3.974
148801.000			-27.818			-3.974
148900.000			-27.819			-3.974
149000.000			-27.818			-3.974
149101.000			-27.817			-3.974
149201.000			-27.816			-3.974
149301.000			-27.816			-3.974
149401.000			-27.815			-3.974
149500.000			-27.816			-3.974
149600.000			-27.815			-3.974
149701.000			-27.815			-3.974
149800.000			-27.815			-3.974
149901.000			-27.813			-3.973
150000.000			-27.813			-3.973
150100.000			-27.812			-3.973
150202.000			-27.813			-3.973
150301.000			-27.812			-3.973
150400.000			-27.810			-3.973
150501.000			-27.810			-3.973
150600.000			-27.810			-3.973
150700.000			-27.808			-3.973
150801.000			-27.809			-3.973
150900.000			-27.808			-3.973
151000.000			-27.807			-3.972
151102.000			-27.807			-3.972
151201.000			-27.807			-3.972
151300.000			-27.807			-3.972
151401.000			-27.806			-3.972
151500.000			-27.805			-3.972
151600.000			-27.805			-3.972
151701.000			-27.804			-3.972
151800.000			-27.804			-3.972
151900.000			-27.804			-3.972
152002.000			-27.803			-3.972
152101.000			-27.803			-3.972
152201.000			-27.801			-3.972
152301.000			-27.801			-3.972
152400.000			-27.801			-3.972
152500.000			-27.800			-3.971
152601.000			-27.800			-3.971
152700.000			-27.800			-3.971
152800.000			-27.800			-3.971
152901.000			-27.799			-3.971
153001.000			-27.798			-3.971
153102.000			-27.798			-3.971
153201.000			-27.797			-3.971
153300.000			-27.797			-3.971
153401.000			-27.797			-3.971
153500.000			-27.796			-3.971
153600.000			-27.796			-3.971
153701.000			-27.796			-3.971
153800.000			-27.795			-3.971
153900.000			-27.794			-3.971
154002.000			-27.794			-3.971
154101.000			-27.793			-3.970
154201.000			-27.793			-3.970
154301.000			-27.794			-3.971
154400.000			-27.792			-3.970
154500.000			-27.792			-3.970
154601.000			-27.792			-3.970
154700.000			-27.791			-3.970
154800.000			-27.791			-3.970
154901.000			-27.791			-3.970
155001.000			-27.791			-3.970
155101.000			-27.790			-3.970
155201.000			-27.789			-3.970
155300.000			-27.789			-3.970
155400.000			-27.787			-3.970
155501.000			-27.787			-3.970
155600.000			-27.787			-3.970
155700.000			-27.786			-3.969
155801.000			-27.787			-3.970
155901.000			-27.786			-3.969
156001.000			-27.786			-3.969
156102.000			-27.786			-3.969
156200.000			-27.786			-3.969
156301.000			-27.786			-3.969
156400.000			-27.784			-3.969
156500.000			-27.782			-3.969
156601.000			-27.782			-3.969
156700.000			-27.782			-3.969
156800.000			-27.782			-3.969
156901.000			-27.781			-3.969
157001.000			-27.781			-3.969
157101.000			-27.780			-3.969
157201.000			-27.780			-3.969
157300.000			-27.778			-3.968
157400.000			-27.778			-3.968
157501.000			-27.779			-3.968
157600.000			-27.779			-3.968
157700.000			-27.777			-3.968
157801.000			-27.777			-3.968
157901.000			-27.777			-3.968
158001.000			-27.777			-3.968
158102.000			-27.775			-3.968
158200.000			-27.775			-3.968
158300.000			-27.776			-3.968
158401.000			-27.775			-3.968
158500.000			-27.774			-3.968
158600.000			-27.774			-3.968
158701.000			-27.773			-3.968
158800.000			-27.773			-3.968
158901.000			-27.772			-3.967
159002.000			-27.772			-3.967
159101.000			-27.771			-3.967
159200.000			-27.771			-3.967
159301.000			-27.771			-3.967
159400.000			-27.771			-3.967
159501.000			-27.770			-3.967
159600.000			-27.768			-3.967
159700.000			-27.769			-3.967
159801.000			-27.768			-3.967
159901.000			-27.767			-3.967
160001.000			-27.768			-3.967
160102.000			-27.768			-3.967
160200.000			-27.767			-3.967
160300.000			-27.767			-3.967
160401.000			-27.766			-3.967
160500.000			-27.766			-3.967
160600.000			-27.766			-3.967
160701.000			-27.765			-3.966
160800.000			-27.765			-3.966
160901.000			-27.764			-3.966
161002.000			-27.764			-3.966
161101.000			-27.763			-3.966
161200.000			-27.763			-3.966
161301.000			-27.763			-3.966
161400.000			-27.762			-3.966
161500.000			-27.762			-3.966
161601.000			-27.761			-3.966
161700.000			-27.760			-3.966
161800.000			-27.761			-3.966
161902.000			-27.760			-3.966
162001.000			-27.759			-3.966
162100.000			-27.759			-3.966
162201.000			-27.758			-3.965
162300.000			-27.758			-3.965
162400.000			-27.758			-3.965
162501.000			-27.757			-3.965
162600.000			-27.757			-3.965
162701.000			-27.756			-3.965
162801.000			-27.756			-3.965
162901.000			-27.756			-3.965
163002.000			-27.756			-3.965
163100.000			-27.753			-3.965
163200.000			-27.753			-3.965
163301.000			-27.753			-3.965
163400.000			-27.754			-3.965
163500.000			-27.753			-3.965
163601.000			-27.753			-3.965
163700.000			-27.752			-3.965
163801.000			-27.751			-3.964
163902.000			-27.751			-3.964
164001.000			-27.750			-3.964
164100.000			-27.750			-3.964
164201.000			-27.749			-3.964
164300.000			-27.749			-3.964
164400.000			-27.750			-3.964
164501.000			-27.749			-3.964
164600.000			-27.748			-3.964
164700.000			-27.748			-3.964
164802.000			-27.747			-3.964
164901.000			-27.747			-3.964
165000.000			-27.746			-3.964
165101.000			-27.747			-3.964
165200.000			-27.746			-3.964
165300.000			-27.745			-3.964
165401.000			-27.746			-3.964
165500.000			-27.745			-3.964
165600.000			-27.745			-3.964
165701.000			-27.744			-3.963
165801.000			-27.744			-3.963
165902.000			-27.742			-3.963
166000.000			-27.741			-3.963
166100.000			-27.741			-3.963
166201.000			-27.741			-3.963
166300.000			-27.741			-3.963
166400.000			-27.740			-3.963
166501.000			-27.740			-3.963
166600.000			-27.740			-3.963
166701.000			-27.740			-3.963
166802.000			-27.739			-3.963
166901.000			-27.738			-3.963
167000.000			-27.737			-3.962
167101.000			-27.737			-3.962
167200.000			-27.737			-3.962
167300.000			-27.736			-3.962
167401.000			-27.736			-3.962
167500.000			-27.735			-3.962
167600.000			-27.735			-3.962
167702.000			-27.736			-3.962
167801.000			-27.735			-3.962
167901.000			-27.734			-3.962
168001.000			-27.734			-3.962
168100.000			-27.734			-3.962
168200.000			-27.733			-3.962
168301.000			-27.733			-3.962
168400.000			-27.733			-3.962
168500.000			-27.733			-3.962
168601.000			-27.732			-3.962
168701.000			-27.731			-3.962
168801.000			-27.731			-3.962
168902.000			-27.730			-3.961
169000.000			-27.731			-3.962
169101.000			-27.731			-3.962
169200.000			-27.729			-3.961
169300.000			-27.729			-3.961
169401.000			-27.729			-3.961
169500.000			-27.728			-3.961
169600.000			-27.728			-3.961
169702.000			-27.727			-3.961
169801.000			-27.726			-3.961
169901.000			-27.726			-3.961
170001.000			-27.726			-3.961
170100.000			-27.726			-3.961
170200.000			-27.726			-3.961
170301.000			-27.725			-3.961
170400.000			-27.724			-3.961
170500.000			-27.724			-3.961
170601.000			-27.723			-3.960
170701.000			-27.723			-3.960
170801.000			-27.722			-3.960
170901.000			-27.721			-3.960
171000.000			-27.722			-3.960
171100.000			-27.722			-3.960
171201.000			-27.721			-3.960
171300.000			-27.721			-3.960
171400.000			-27.720			-3.960
171501.000			-27.719			-3.960
171601.000			-27.719			-3.960
171701.000			-27.718			-3.960
171802.000			-27.719			-3.960
171900.000			-27.718			-3.960
172000.000			-27.717			-3.960
172101.000			-27.717			-3.960
172200.000			-27.716			-3.959
172301.000			-27.715			-3.959
172400.000			-27.715			-3.959
172500.000			-27.715			-3.959
172602.000			-27.715			-3.959
172701.000			-27.715			-3.959
172800.000			-27.714			-3.959
172901.000			-27.714			-3.959
173000.000			-27.713			-3.959
173100.000			-27.712			-3.959
173201.000			-27.712			-3.959
173300.000			-27.712			-3.959
173400.000			-27.712			-3.959
173502.000			-27.711			-3.959
173601.000			-27.711			-3.959
173701.000			-27.711			-3.959
173801.000			-27.710			-3.959
173900.000			-27.710			-3.959
174000.000			-27.710			-3.959
174101.000			-27.709			-3.958
174200.000			-27.708			-3.958
174300.000			-27.708			-3.958
174401.000			-27.708			-3.958
174501.000			-27.707			-3.958
174601.000			-27.708			-3.958
174701.000			-27.707			-3.958
174800.000			-27.706			-3.958
174900.000			-27.706			-3.958
175001.000			-27.706			-3.958
175100.000			-27.705			-3.958
175200.000			-27.705			-3.958
175301.000			-27.705			-3.958
175401.000			-27.705			-3.958
175502.000			-27.704			-3.958
175601.000			-27.704			-3.958
175700.000			-27.704			-3.958
175801.000			-27.703			-3.958
175900.000			-27.702			-3.957
176000.000			-27.702			-3.957
176101.000			-27.702			-3.957
176200.000			-27.701			-3.957
176300.000			-27.700			-3.957
176402.000			-27.700			-3.957
176501.000			-27.700			-3.957
176601.000			-27.699			-3.957
176701.000			-27.699			-3.957
176800.000			-27.700			-3.957
176900.000			-27.700			-3.957
177001.000			-27.698			-3.957
177100.000			-27.699			-3.957
177200.000			-27.699			-3.957
177301.000			-27.698			-3.957
177401.000			-27.698			-3.957
177501.000			-27.697			-3.957
177602.000			-27.696			-3.957
177700.000			-27.696			-3.957
177800.000			-27.695			-3.956
177901.000			-27.694			-3.956
178000.000			-27.694			-3.956
178100.000			-27.695			-3.956
178201.000			-27.694			-3.956
178300.000			-27.694			-3.956
178400.000			-27.694			-3.956
178502.000			-27.693			-3.956
178601.000			-27.692			-3.956
178701.000			-27.692			-3.956
178800.000			-27.692			-3.956
178900.000			-27.691			-3.956
179001.000			-27.691			-3.956
179100.000			-27.690			-3.956
179200.000			-27.690			-3.956
179301.000			-27.690			-3.956
179400.000			-27.690			-3.956
179501.000			-27.690			-3.956
179602.000			-27.690			-3.956
179700.000			-27.689			-3.956
179800.000			-27.689			-3.956
179901.000			-27.688			-3.955
180000.000			-27.688			-3.955
180100.000			-27.687			-3.955
180201.000			-27.688			-3.955
180300.000			-27.688			-3.955
180400.000			-27.687			-3.955
180502.000			-27.687			-3.955
180601.000			-27.684			-3.955
180700.000			-27.685			-3.955
180801.000			-27.685			-3.955
180900.000			-27.684			-3.955
181000.000			-27.685			-3.955
181101.000			-27.684			-3.955
181200.000			-27.684			-3.955
181300.000			-27.683			-3.955
181402.000			-27.684			-3.955
181501.000			-27.683			-3.955
181601.000			-27.682			-3.955
181701.000			-27.681			-3.954
181800.000			-27.682			-3.955
181901.000			-27.681			-3.954
182000.000			-27.681			-3.954
182100.000			-27.681			-3.954
182201.000			-27.680			-3.954
182300.000			-27.679			-3.954
182401.000			-27.678			-3.954
182502.000			-27.679			-3.954
182601.000			-27.678			-3.954
182700.000			-27.679			-3.954
182801.000			-27.679			-3.954
182900.000			-27.678			-3.954
183000.000			-27.677			-3.954
183101.000			-27.677			-3.954
183200.000			-27.676			-3.954
183300.000			-27.676			-3.954
183402.000			-27.675			-3.954
183501.000			-27.676			-3.954
183601.000			-27.676			-3.954
183701.000			-27.675			-3.954
183800.000			-27.674			-3.953
183900.000			-27.673			-3.953
184001.000			-27.673			-3.953
184100.000			-27.672			-3.953
184200.000			-27.672			-3.953
184301.000			-27.672			-3.953
184401.000			-27.671			-3.953
184501.000			-27.671			-3.953
184601.000			-27.671			-3.953
184700.000			-27.671			-3.953
184800.000			-27.669			-3.953
184901.000			-27.670			-3.953
185000.000			-27.668			-3.953
185101.000			-27.668			-3.953
185200.000			-27.668			-3.953
185300.000			-27.668			-3.953
185402.000			-27.667			-3.952
185501.000			-27.667			-3.952
185600.000			-27.666			-3.952
185701.000			-27.667			-3.952
185800.000			-27.665			-3.952
185900.000			-27.665			-3.952
186001.000			-27.665			-3.952
186100.000			-27.664			-3.952
186200.000			-27.664			-3.952
186301.000			-27.665			-3.952
186401.000			-27.665			-3.952
186501.000			-27.664			-3.952
186601.000			-27.663			-3.952
186700.000			-27.662			-3.952
186800.000			-27.662			-3.952
186901.000			-27.662			-3.952
187000.000			-27.663			-3.952
187100.000			-27.662			-3.952
187201.000			-27.661			-3.952
187300.000			-27.660			-3.951
187401.000			-27.660			-3.951
187502.000			-27.660			-3.951
187600.000			-27.659			-3.951
187700.000			-27.659			-3.951
187801.000			-27.658			-3.951
187900.000			-27.658			-3.951
188000.000			-27.657			-3.951
188101.000			-27.658			-3.951
188200.000			-27.656			-3.951
188301.000			-27.656			-3.951
188401.000			-27.657			-3.951
188501.000			-27.657			-3.951
188601.000			-27.655			-3.951
188700.000			-27.655			-3.951
188800.000			-27.655			-3.951
188901.000			-27.655			-3.951
189000.000			-27.655			-3.951
189100.000			-27.655			-3.951
189201.000			-27.654			-3.951
189300.000			-27.654			-3.951
189401.000			-27.652			-3.950
189502.000			-27.651			-3.950
189600.000			-27.652			-3.950
189700.000			-27.652			-3.950
189801.000			-27.652			-3.950
189900.000			-27.651			-3.950
190000.000			-27.651			-3.950
190101.000			-27.651			-3.950
190200.000			-27.651			-3.950
190301.000			-27.651			-3.950
190402.000			-27.651			-3.950
190501.000			-27.650			-3.950
190600.000			-27.649			-3.950
190701.000			-27.649			-3.950
190800.000			-27.648			-3.950
190900.000			-27.647			-3.950
191001.000			-27.647			-3.950
191100.000			-27.647			-3.950
191200.000			-27.647			-3.950
191302.000			-27.647			-3.950
191401.000			-27.648			-3.950
191502.000			-27.647			-3.950
191600.000			-27.646			-3.949
191700.000			-27.647			-3.950
191801.000			-27.646			-3.949
191900.000			-27.645			-3.949
192000.000			-27.645			-3.949
192101.000			-27.645			-3.949
192200.000			-27.645			-3.949
192301.000			-27.644			-3.949
192402.000			-27.643			-3.949
192501.000			-27.644			-3.949
192600.000			-27.644			-3.949
192701.000			-27.644			-3.949
192800.000			-27.644			-3.949
192900.000			-27.643			-3.949
193001.000			-27.640			-3.949
193100.000			-27.641			-3.949
193200.000			-27.640			-3.949
193302.000			-27.640			-3.949
193401.000			-27.638			-3.948
193500.000			-27.638			-3.948
193601.000			-27.639			-3.948
193700.000			-27.640			-3.949
193800.000			-27.638			-3.948
193901.000			-27.639			-3.948
194000.000			-27.639			-3.948
194100.000			-27.637			-3.948
194201.000			-27.637			-3.948
194301.000			-27.637			-3.948
194401.000			-27.636			-3.948
194501.000			-27.636			-3.948
194600.000			-27.635			-3.948
194701.000			-27.635			-3.948
194800.000			-27.635			-3.948
194900.000			-27.635			-3.948
195001.000			-27.635			-3.948
195100.000			-27.634			-3.948
195200.000			-27.634			-3.948
195302.000			-27.633			-3.948
195401.000			-27.633			-3.948
195500.000			-27.633			-3.948
195601.000			-27.632			-3.947
195700.000			-27.632			-3.947
195800.000			-27.632			-3.947
195901.000			-27.631			-3.947
196000.000			-27.630			-3.947
196100.000			-27.630			-3.947
196202.000			-27.630			-3.947
196301.000			-27.630			-3.947
196401.000			-27.629			-3.947
196501.000			-27.629			-3.947
196600.000			-27.628			-3.947
196700.000			-27.629			-3.947
196801.000			-27.629			-3.947
196900.000			-27.628			-3.947
197000.000			-27.629			-3.947
197101.000			-27.628			-3.947
197201.000			-27.628			-3.947
197301.000			-27.628			-3.947
197402.000			-27.627			-3.947
197500.000			-27.627			-3.947
197600.000			-27.627			-3.947
197701.000			-27.626			-3.947
197800.000			-27.625			-3.946
197901.000			-27.625			-3.946
198000.000			-27.625			-3.946
198100.000			-27.625			-3.946
198202.000			-27.624			-3.946
198301.000			-27.624			-3.946
198401.000			-27.624			-3.946
198501.000			-27.624			-3.946
198600.000			-27.623			-3.946
198700.000			-27.622			-3.946
198801.000			-27.622			-3.946
198900.000			-27.622			-3.946
199000.000			-27.621			-3.946
199101.000			-27.621			-3.946
199201.000			-27.621			-3.946
199301.000			-27.621			-3.946
199401.000			-27.620			-3.946
199500.000			-27.619			-3.946
199600.000			-27.619			-3.946
199701.000			-27.618			-3.945
199800.000			-27.618			-3.945
199900.000			-27.619			-3.946
200001.000			-27.619			-3.946
200100.000			-27.618			-3.945
200201.000			-27.617			-3.945
200302.000			-27.616			-3.945
200400.000			-27.616			-3.945
200500.000			-27.616			-3.945
200601.000			-27.616			-3.945
200700.000			-27.615			-3.945
200800.000			-27.616			-3.945
200901.000			-27.616			-3.945
201000.000			-27.615			-3.945
201102.000			-27.614			-3.945
201201.000			-27.614			-3.945
201300.000			-27.613			-3.945
201401.000			-27.614			-3.945
201500.000			-27.613			-3.945
201600.000			-27.612			-3.945
201701.000			-27.612			-3.945
201800.000			-27.612			-3.945
201900.000			-27.613			-3.945
202002.000			-27.612			-3.945
202101.000			-27.612			-3.945
202200.000			-27.611			-3.944
202301.000			-27.611			-3.944
202400.000			-27.610			-3.944
202500.000			-27.610			-3.944
202601.000			-27.610			-3.944
202700.000			-27.609			-3.944
202800.000			-27.608			-3.944
202902.000			-27.609			-3.944
203001.000			-27.609			-3.944
203100.000			-27.610			-3.944
203201.000			-27.608			-3.944
203300.000			-27.608			-3.944
203400.000			-27.608			-3.944
203501.000			-27.608			-3.944
203600.000			-27.608			-3.944
203700.000			-27.607			-3.944
203802.000			-27.607			-3.944
203901.000			-27.607			-3.944
204001.000			-27.605			-3.944
204101.000			-27.605			-3.944
204200.000			-27.605			-3.944
204301.000			-27.605			-3.944
204400.000			-27.604			-3.943
204500.000			-27.604			-3.943
204601.000			-27.603			-3.943
204700.000			-27.603			-3.943
204801.000			-27.603			-3.943
204902.000			-27.602			-3.943
205000.000			-27.602			-3.943
205100.000			-27.602			-3.943
205201.000			-27.602			-3.943
205300.000			-27.602			-3.943
205400.000			-27.601			-3.943
205501.000			-27.601			-3.943
205600.000			-27.601			-3.943
205701.000			-27.600			-3.943
205802.000			-27.601			-3.943
205900.000			-27.601			-3.943
206000.000			-27.599			-3.943
206101.000			-27.598			-3.943
206200.000			-27.599			-3.943
206300.000			-27.599			-3.943
206401.000			-27.599			-3.943
206500.000			-27.597			-3.942
206601.000			-27.597			-3.942
206702.000			-27.597			-3.942
206801.000			-27.596			-3.942
206900.000			-27.596			-3.942
207001.000			-27.597			-3.942
207100.000			-27.597			-3.942
207200.000			-27.596			-3.942
207301.000			-27.594			-3.942
207400.000			-27.594			-3.942
207501.000			-27.594			-3.942
207601.000			-27.594			-3.942
207701.000			-27.593			-3.942
207801.000			-27.593			-3.942
207900.000			-27.593			-3.942
208000.000			-27.592			-3.942
208101.000			-27.592			-3.942
208200.000			-27.591			-3.942
208300.000			-27.591			-3.942
208401.000			-27.591			-3.942
208501.000			-27.590			-3.941
208601.000			-27.590			-3.941
208702.000			-27.590			-3.941
208800.000			-27.590			-3.941
208900.000			-27.589			-3.941
209001.000			-27.589			-3.941
209100.000			-27.589			-3.941
209200.000			-27.589			-3.941
209301.000			-27.588			-3.941
209400.000			-27.588			-3.941
209501.000			-27.588			-3.941
209602.000			-27.587			-3.941
209701.000			-27.587			-3.941
209800.000			-27.586			-3.941
209901.000			-27.586			-3.941
210000.000			-27.586			-3.941
210100.000			-27.585			-3.941
210201.000			-27.584			-3.941
210300.000			-27.583			-3.940
210400.000			-27.584			-3.941
210502.000			-27.584			-3.941
210601.000			-27.583			-3.940
210701.000			-27.583			-3.940
210800.000			-27.582			-3.940
210900.000			-27.582			-3.940
211001.000			-27.582			-3.940
211100.000			-27.581			-3.940
211200.000			-27.582			-3.940
211301.000			-27.582			-3.940
211401.000			-27.581			-3.940
211501.000			-27.580			-3.940
211602.000			-27.579			-3.940
211700.000			-27.579			-3.940
211800.000			-27.580			-3.940
211901.000			-27.579			-3.940
212000.000			-27.578			-3.940
212100.000			-27.578			-3.940
212201.000			-27.578			-3.940
212300.000			-27.578			-3.940
212401.000			-27.578			-3.940
212502.000			-27.577			-3.940
212600.000			-27.577			-3.940
212700.000			-27.575			-3.939
212801.000			-27.576			-3.939
212900.000			-27.575			-3.939
213000.000			-27.575			-3.939
213101.000			-27.576			-3.939
213200.000			-27.575			-3.939
213301.000			-27.574			-3.939
213402.000			-27.574			-3.939
213501.000			-27.574			-3.939
213600.000			-27.574			-3.939
213701.000			-27.574			-3.939
213800.000			-27.574			-3.939
213901.000			-27.574			-3.939
214000.000			-27.573			-3.939
214100.000			-27.572			-3.939
214201.000			-27.573			-3.939
214301.000			-27.573			-3.939
214401.000			-27.572			-3.939
214501.000			-27.571			-3.939
214600.000			-27.572			-3.939
214700.000			-27.571			-3.939
214801.000			-27.570			-3.939
214900.000			-27.571			-3.939
215000.000			-27.571			-3.939
215101.000			-27.571			-3.939
215201.000			-27.570			-3.939
215301.000			-27.570			-3.939
215402.000			-27.569			-3.938
215500.000			-27.568			-3.938
215600.000			-27.567			-3.938
215701.000			-27.567			-3.938
215800.000			-27.566			-3.938
215900.000			-27.566			-3.938
216001.000			-27.566			-3.938
216100.000			-27.567			-3.938
216201.000			-27.566			-3.938
216302.000			-27.566			-3.938
216401.000			-27.565			-3.938
216500.000			-27.565			-3.938
216601.000			-27.565			-3.938
216700.000			-27.564			-3.938
216800.000			-27.563			-3.938
216901.000			-27.563			-3.938
217000.000			-27.564			-3.938
217101.000			-27.562			-3.937
217201.000			-27.561			-3.937
217301.000			-27.561			-3.937
217401.000			-27.561			-3.937
217500.000			-27.561			-3.937
217600.000			-27.561			-3.937
217701.000			-27.561			-3.937
217800.000			-27.560			-3.937
217900.000			-27.559			-3.937
218001.000			-27.558			-3.937
218101.000			-27.559			-3.937
218201.000			-27.558			-3.937
218302.000			-27.557			-3.937
218400.000			-27.558			-3.937
218500.000			-27.559			-3.937
218601.000			-27.557			-3.937
218700.000			-27.556			-3.937
218800.000			-27.555			-3.936
218901.000			-27.555			-3.936
219000.000			-27.555			-3.936
219101.000			-27.556			-3.937
219202.000			-27.556			-3.937
219301.000			-27.554			-3.936
219400.000			-27.554			-3.936
219501.000			-27.553			-3.936
219600.000			-27.553			-3.936
219700.000			-27.554			-3.936
219801.000			-27.554			-3.936
219900.000			-27.553			-3.936
220000.000			-27.554			-3.936
220102.000			-27.552			-3.936
220201.000			-27.553			-3.936
220301.000			-27.553			-3.936
220400.000			-27.553			-3.936
220500.000			-27.552			-3.936
220601.000			-27.551			-3.936
220700.000			-27.550			-3.936
220800.000			-27.551			-3.936
220901.000			-27.551			-3.936
221001.000			-27.550			-3.936
221101.000			-27.549			-3.936
221201.000			-27.549			-3.936
221300.000			-27.550			-3.936
221400.000			-27.549			-3.936
221501.000			-27.548			-3.935
221600.000			-27.548			-3.935
221700.000			-27.547			-3.935
221801.000			-27.547			-3.935
221901.000			-27.546			-3.935
222001.000			-27.546			-3.935
222102.000			-27.546			-3.935
222200.000			-27.546			-3.935
222300.000			-27.545			-3.935
222401.000			-27.545			-3.935
222500.000			-27.545			-3.935
222600.000			-27.544			-3.935
222701.000			-27.543			-3.935
222800.000			-27.543			-3.935
222901.000			-27.544			-3.935
223002.000			-27.543			-3.935
223100.000			-27.542			-3.935
223200.000			-27.542			-3.935
223301.000			-27.543			-3.935
223400.000			-27.543			-3.935
223501.000			-27.541			-3.934
223600.000			-27.542			-3.935
223700.000			-27.540			-3.934
223802.000			-27.540			-3.934
223901.000			-27.541			-3.934
224001.000			-27.540			-3.934
224101.000			-27.540			-3.934
224200.000			-27.539			-3.934
224300.000			-27.539			-3.934
224401.000			-27.539			-3.934
224500.000			-27.538			-3.934
224600.000			-27.538			-3.934
224702.000			-27.538			-3.934
224801.000			-27.538			-3.934
224901.000			-27.538			-3.934
225001.000			-27.538			-3.934
225100.000			-27.537			-3.934
225200.000			-27.536			-3.934
225301.000			-27.537			-3.934
225400.000			-27.538			-3.934
225500.000			-27.537			-3.934
225601.000			-27.536			-3.934
225701.000			-27.537			-3.934
225801.000			-27.537			-3.934
225901.000			-27.536			-3.934
226000.000			-27.536			-3.934
226100.000			-27.536			-3.934
226201.000			-27.535			-3.934
226300.000			-27.534			-3.933
226400.000			-27.534			-3.933
226501.000			-27.534			-3.933
226601.000			-27.534			-3.933
226702.000			-27.533			-3.933
226801.000			-27.533			-3.933
226900.000			-27.533			-3.933
227001.000			-27.534			-3.933
227100.000			-27.534			-3.933
227200.000			-27.534			-3.933
227301.000			-27.532			-3.933
227400.000			-27.531			-3.933
227500.000			-27.533			-3.933
227602.000			-27.532			-3.933
227701.000			-27.531			-3.933
227800.000			-27.532			-3.933
227901.000			-27.531			-3.933
228000.000			-27.530			-3.933
228100.000			-27.529			-3.933
228201.000			-27.530			-3.933
228300.000			-27.530			-3.933
228400.000			-27.531			-3.933
228502.000			-27.531			-3.933
228601.000			-27.530			-3.933
228700.000			-27.529			-3.933
228801.000			-27.529			-3.933
228900.000			-27.528			-3.933
229000.000			-27.528			-3.933
229101.000			-27.529			-3.933
229200.000			-27.528			-3.933
229300.000			-27.527			-3.932
229401.000			-27.527			-3.932
229501.000			-27.528			-3.933
229601.000			-27.527			-3.932
229701.000			-27.527			-3.932
229800.000			-27.527			-3.932
229901.000			-27.527			-3.932
230000.000			-27.526			-3.932
230100.000			-27.526			-3.932
230201.000			-27.526			-3.932
230300.000			-27.525			-3.932
230401.000			-27.525			-3.932
230502.000			-27.525			-3.932
230601.000			-27.525			-3.932
230700.000			-27.526			-3.932
230801.000			-27.526			-3.932
230900.000			-27.524			-3.932
231000.000			-27.523			-3.932
231101.000			-27.523			-3.932
231200.000			-27.521			-3.932
231301.000			-27.522			-3.932
231402.000			-27.522			-3.932
231501.000			-27.522			-3.932
231600.000			-27.521			-3.932
231701.000			-27.521			-3.932
231800.000			-27.521			-3.932
231900.000			-27.521			-3.932
232001.000			-27.520			-3.931
232100.000			-27.520			-3.931
232201.000			-27.520			-3.931
232302.000			-27.519			-3.931
232401.000			-27.518			-3.931
232500.000			-27.518			-3.931
232601.000			-27.518			-3.931
232700.000			-27.519			-3.931
232800.000			-27.518			-3.931
232901.000			-27.517			-3.931
233000.000			-27.517			-3.931
233101.000			-27.517			-3.931
233201.000			-27.516			-3.931
233301.000			-27.515			-3.931
233401.000			-27.515			-3.931
233500.000			-27.515			-3.931
233600.000			-27.514			-3.931
233701.000			-27.514			-3.931
233800.000			-27.514			-3.931
233900.000			-27.513			-3.930
234001.000			-27.513			-3.930
234101.000			-27.513			-3.930
234201.000			-27.512			-3.930
234302.000			-27.511			-3.930
234400.000			-27.511			-3.930
234500.000			-27.511			-3.930
234601.000			-27.510			-3.930
234700.000			-27.512			-3.930
234800.000			-27.511			-3.930
234901.000			-27.510			-3.930
235001.000			-27.510			-3.930
235101.000			-27.509			-3.930
235202.000			-27.508			-3.930
235300.000			-27.509			-3.930
235400.000			-27.509			-3.930
235501.000			-27.509			-3.930
235600.000			-27.508			-3.930
235700.000			-27.507			-3.930
235801.000			-27.507			-3.930
235900.000			-27.507			-3.930
236001.000			-27.507			-3.930
236102.000			-27.506			-3.929
236200.000			-27.506			-3.929
236301.000			-27.506			-3.929
236400.000			-27.506			-3.929
236500.000			-27.506			-3.929
236601.000			-27.504			-3.929
236700.000			-27.504			-3.929
236800.000			-27.504			-3.929
236902.000			-27.504			-3.929
237001.000			-27.504			-3.929
237101.000			-27.503			-3.929
237201.000			-27.503			-3.929
237300.000			-27.503			-3.929
237400.000			-27.504			-3.929
237501.000			-27.502			-3.929
237600.000			-27.501			-3.929
237700.000			-27.501			-3.929
237802.000			-27.502			-3.929
237901.000			-27.502			-3.929
238001.000			-27.501			-3.929
238101.000			-27.502			-3.929
238200.000			-27.500			-3.929
238300.000			-27.500			-3.929
238401.000			-27.500			-3.929
238500.000			-27.500			-3.929
238600.000			-27.500			-3.929
238702.000			-27.500			-3.929
238801.000			-27.499			-3.928
238901.000			-27.499			-3.928
239001.000			-27.498			-3.928
239100.000			-27.499			-3.928
239200.000			-27.499			-3.928
239301.000			-27.499			-3.928
239400.000			-27.498			-3.928
239501.000			-27.498			-3.928
239600.000			-27.498			-3.928
239701.000			-27.497			-3.928
239802.000			-27.497			-3.928
239901.000			-27.496			-3.928
240000.000			-27.496			-3.928
240101.000			-27.495			-3.928
240200.000			-27.496			-3.928
240300.000			-27.496			-3.928
240401.000			-27.496			-3.928
240500.000			-27.495			-3.928
240600.000			-27.495			-3.928
240702.000			-27.495			-3.928
240801.000			-27.494			-3.928
240901.000			-27.494			-3.928
241001.000			-27.494			-3.928
241100.000			-27.494			-3.928
241200.000			-27.494			-3.928
241301.000			-27.493			-3.928
241400.000			-27.493			-3.928
241500.000			-27.493			-3.928
241602.000			-27.492			-3.927
241701.000			-27.492			-3.927
241801.000			-27.492			-3.927
241901.000			-27.491			-3.927
242000.000			-27.492			-3.927
242100.000			-27.492			-3.927
242201.000			-27.492			-3.927
242300.000			-27.492			-3.927
242400.000			-27.491			-3.927
242501.000			-27.490			-3.927
242601.000			-27.490			-3.927
242702.000			-27.489			-3.927
242801.000			-27.489			-3.927
242900.000			-27.489			-3.927
243001.000			-27.488			-3.927
243100.000			-27.488			-3.927
243200.000			-27.488			-3.927
243301.000			-27.488			-3.927
243400.000			-27.488			-3.927
243500.000			-27.488			-3.927
243602.000			-27.487			-3.927
243701.000			-27.487			-3.927
243801.000			-27.486			-3.927
243901.000			-27.486			-3.927
244000.000			-27.486			-3.927
244100.000			-27.486			-3.927
244201.000			-27.485			-3.926
244300.000			-27.486			-3.927
244400.000			-27.486			-3.927
244501.000			-27.486			-3.927
244601.000			-27.485			-3.926
244701.000			-27.485			-3.926
244801.000			-27.483			-3.926
244900.000			-27.482			-3.926
245000.000			-27.483			-3.926
245101.000			-27.483			-3.926
245200.000			-27.482			-3.926
245300.000			-27.482			-3.926
245401.000			-27.483			-3.926
245501.000			-27.483			-3.926
245601.000			-27.482			-3.926
245702.000			-27.482			-3.926
245800.000			-27.481			-3.926
245901.000			-27.480			-3.926
246000.000			-27.480			-3.926
246100.000			-27.479			-3.926
246201.000			-27.479			-3.926
246300.000			-27.480			-3.926
246400.000			-27.479			-3.926
246502.000			-27.479			-3.926
246601.000			-27.479			-3.926
246701.000			-27.477			-3.925
246801.000			-27.477			-3.925
246900.000			-27.477			-3.925
247000.000			-27.477			-3.925
247101.000			-27.477			-3.925
247200.000			-27.476			-3.925
247300.000			-27.475			-3.925
247401.000			-27.474			-3.925
247501.000			-27.475			-3.925
247601.000			-27.475			-3.925
247701.000			-27.474			-3.925
247800.000			-27.475			-3.925
247900.000			-27.473			-3.925
248001.000			-27.473			-3.925
248100.000			-27.473			-3.925
248200.000			-27.473			-3.925
248301.000			-27.473			-3.925
248401.000			-27.472			-3.925
248501.000			-27.471			-3.924
248602.000			-27.471			-3.924
248700.000			-27.470			-3.924
248800.000			-27.471			-3.924
248901.000			-27.471			-3.924
249000.000			-27.470			-3.924
249101.000			-27.470			-3.924
249200.000			-27.469			-3.924
249300.000			-27.468			-3.924
249402.000			-27.467			-3.924
249501.000			-27.468			-3.924
249601.000			-27.469			-3.924
249701.000			-27.467			-3.924
249800.000			-27.467			-3.924
249900.000			-27.468			-3.924
250001.000			-27.467			-3.924
250100.000			-27.466			-3.924
250200.000			-27.466			-3.924
250301.000			-27.466			-3.924
250401.000			-27.465			-3.924
250501.000			-27.465			-3.924
250602.000			-27.463			-3.923
250700.000			-27.463			-3.923
250800.000			-27.464			-3.923
250901.000			-27.464			-3.923
251000.000			-27.463			-3.923
251100.000			-27.463			-3.923
251201.000			-27.463			-3.923
251300.000			-27.463			-3.923
251401.000			-27.462			-3.923
251502.000			-27.463			-3.923
251600.000			-27.462			-3.923
251700.000			-27.462			-3.923
251801.000			-27.461			-3.923
251900.000			-27.462			-3.923
252000.000			-27.462			-3.923
252101.000			-27.462			-3.923
252200.000			-27.462			-3.923
252302.000			-27.461			-3.923
252401.000			-27.461			-3.923
252500.000			-27.460			-3.923
252601.000			-27.460			-3.923
252700.000			-27.459			-3.923
252800.000			-27.460			-3.923
252901.000			-27.459			-3.923
253000.000			-27.458			-3.923
253100.000			-27.458			-3.923
253202.000			-27.458			-3.923
253301.000			-27.458			-3.923
253401.000			-27.458			-3.923
253501.000			-27.458			-3.923
253600.000			-27.457			-3.922
253700.000			-27.457			-3.922
253801.000			-27.455			-3.922
253900.000			-27.455			-3.922
254000.000			-27.455			-3.922
254101.000			-27.456			-3.922
254201.000			-27.455			-3.922
254301.000			-27.454			-3.922
254401.000			-27.455			-3.922
254500.000			-27.454			-3.922
254600.000			-27.453			-3.922
254701.000			-27.454			-3.922
254800.000			-27.454			-3.922
254900.000			-27.453			-3.922
255001.000			-27.453			-3.922
255101.000			-27.452			-3.922
255201.000			-27.452			-3.922
255302.000			-27.452			-3.922
255400.000			-27.453			-3.922
255501.000			-27.452			-3.922
255600.000			-27.450			-3.921
255700.000			-27.451			-3.922
255801.000			-27.451			-3.922
255900.000			-27.451			-3.922
256000.000			-27.450			-3.921
256102.000			-27.449			-3.921
256201.000			-27.449			-3.921
256301.000			-27.449			-3.921
256401.000			-27.449			-3.921
256500.000			-27.449			-3.921
256600.000			-27.450			-3.921
256701.000			-27.449			-3.921
256800.000			-27.448			-3.921
256900.000			-27.448			-3.921
257001.000			-27.448			-3.921
257101.000			-27.448			-3.921
257201.000			-27.447			-3.921
257301.000			-27.447			-3.921
257400.000			-27.446			-3.921
257500.000			-27.446			-3.921
257601.000			-27.446			-3.921
257700.000			-27.446			-3.921
257800.000			-27.445			-3.921
257901.000			-27.445			-3.921
258001.000			-27.445			-3.921
258101.000			-27.445			-3.921
258202.000			-27.445			-3.921
258300.000			-27.444			-3.921
258400.000			-27.444			-3.921
258501.000			-27.444			-3.921
258600.000			-27.443			-3.920
258701.000			-27.443			-3.920
258800.000			-27.442			-3.920
258900.000			-27.442			-3.920
259002.000			-27.442			-3.920
259101.000			-27.442			-3.920
259201.000			-27.442			-3.920
259301.000			-27.442			-3.920
259400.000			-27.440			-3.920
259500.000			-27.442			-3.920
259601.000			-27.441			-3.920
259700.000			-27.440			-3.920
259800.000			-27.440			-3.920
259901.000			-27.439			-3.920
260001.000			-27.440			-3.920
260101.000			-27.438			-3.920
260202.000			-27.438			-3.920
260300.000			-27.438			-3.920
260400.000			-27.438			-3.920
260501.000			-27.439			-3.920
260600.000			-27.439			-3.920
260700.000			-27.438			-3.920
260801.000			-27.438			-3.920
260900.000			-27.438			-3.920
261001.000			-27.438			-3.920
261102.000			-27.436			-3.919
261200.000			-27.435			-3.919
261300.000			-27.436			-3.919
261401.000			-27.437			-3.920
261500.000			-27.437			-3.920
261600.000			-27.436			-3.919
261701.000			-27.435			-3.919
261800.000			-27.434			-3.919
261902.000			-27.434			-3.919
262001.000			-27.435			-3.919
262101.000			-27.435			-3.919
262201.000			-27.435			-3.919
262300.000			-27.433			-3.919
262400.000			-27.433			-3.919
262501.000			-27.433			-3.919
262600.000			-27.433			-3.919
262700.000			-27.433			-3.919
262801.000			-27.434			-3.919
262901.000			-27.433			-3.919
263001.000			-27.432			-3.919
263101.000			-27.432			-3.919
263200.000			-27.431			-3.919
263300.000			-27.431			-3.919
263401.000			-27.431			-3.919
263500.000			-27.430			-3.919
263600.000			-27.430			-3.919
263701.000			-27.430			-3.919
263801.000			-27.429			-3.918
263901.000			-27.428			-3.918
264002.000			-27.429			-3.918
264100.000			-27.429			-3.918
264200.000			-27.429			-3.918
264301.000			-27.429			-3.918
264400.000			-27.428			-3.918
264500.000			-27.428			-3.918
264601.000			-27.428			-3.918
264700.000			-27.427			-3.918
264801.000			-27.427			-3.918
264902.000			-27.427			-3.918
265000.000			-27.427			-3.918
265101.000			-27.427			-3.918
265200.000			-27.424			-3.918
265300.000			-27.424			-3.918
265401.000			-27.425			-3.918
265500.000			-27.425			-3.918
265600.000			-27.425			-3.918
265702.000			-27.424			-3.918
265801.000			-27.423			-3.918
265901.000			-27.424			-3.918
266001.000			-27.424			-3.918
266100.000			-27.423			-3.918
266200.000			-27.423			-3.918
266301.000			-27.422			-3.917
266400.000			-27.422			-3.917
266500.000			-27.422			-3.917
266601.000			-27.423			-3.918
266701.000			-27.421			-3.917
266801.000			-27.422			-3.917
266901.000			-27.421			-3.917
267000.000			-27.420			-3.917
267100.000			-27.420			-3.917
267201.000			-27.420			-3.917
267300.000			-27.419			-3.917
267400.000			-27.419			-3.917
267501.000			-27.420			-3.917
267601.000			-27.419			-3.917
267701.000			-27.420			-3.917
267802.000			-27.420			-3.917
267900.000			-27.419			-3.917
268000.000			-27.419			-3.917
268101.000			-27.418			-3.917
268200.000			-27.418			-3.917
268301.000			-27.418			-3.917
268400.000			-27.417			-3.917
268500.000			-27.416			-3.917
268602.000			-27.417			-3.917
268701.000			-27.417			-3.917
268801.000			-27.416			-3.917
268901.000			-27.415			-3.916
269000.000			-27.415			-3.916
269100.000			-27.415			-3.916
269201.000			-27.414			-3.916
269300.000			-27.413			-3.916
269400.000			-27.414			-3.916
269501.000			-27.414			-3.916
269601.000			-27.413			-3.916
269701.000			-27.413			-3.916
269801.000			-27.413			-3.916
269900.000			-27.413			-3.916
270000.000			-27.413			-3.916
270101.000			-27.412			-3.916
270200.000			-27.412			-3.916
270300.000			-27.411			-3.916
270401.000			-27.411			-3.916
270501.000			-27.411			-3.916
270601.000			-27.411			-3.916
270701.000			-27.410			-3.916
270800.000			-27.411			-3.916
270900.000			-27.411			-3.916
271001.000			-27.410			-3.916
271100.000			-27.410			-3.916
271200.000			-27.409			-3.916
271301.000			-27.409			-3.916
271401.000			-27.409			-3.916
271502.000			-27.410			-3.916
271601.000			-27.409			-3.916
271700.000			-27.409			-3.916
271801.000			-27.407			-3.915
271900.000			-27.407			-3.915
272000.000			-27.407			-3.915
272101.000			-27.407			-3.915
272200.000			-27.407			-3.915
272300.000			-27.407			-3.915
272402.000			-27.407			-3.915
272501.000			-27.406			-3.915
272600.000			-27.406			-3.915
272701.000			-27.406			-3.915
272800.000			-27.406			-3.915
272900.000			-27.406			-3.915
273001.000			-27.405			-3.915
273100.000			-27.405			-3.915
273200.000			-27.404			-3.915
273302.000			-27.405			-3.915
273401.000			-27.405			-3.915
273500.000			-27.404			-3.915
273601.000			-27.404			-3.915
273700.000			-27.404			-3.915
273800.000			-27.404			-3.915
273901.000			-27.403			-3.915
274000.000			-27.402			-3.915
274100.000			-27.402			-3.915
274202.000			-27.403			-3.915
274301.000			-27.403			-3.915
274401.000			-27.402			-3.915
274501.000			-27.402			-3.915
274600.000			-27.402			-3.915
274701.000			-27.401			-3.914
274800.000			-27.401			-3.914
274900.000			-27.401			-3.914
275001.000			-27.400			-3.914
275101.000			-27.400			-3.914
275201.000			-27.400			-3.914
275302.000			-27.401			-3.914
275400.000			-27.400			-3.914
275500.000			-27.399			-3.914
275601.000			-27.400			-3.914
275700.000			-27.400			-3.914
275800.000			-27.398			-3.914
275901.000			-27.399			-3.914
276000.000			-27.400			-3.914
276101.000			-27.398			-3.914
276202.000			-27.398			-3.914
276301.000			-27.399			-3.914
276400.000			-27.398			-3.914
276501.000			-27.397			-3.914
276600.000			-27.397			-3.914
276700.000			-27.398			-3.914
276801.000			-27.397			-3.914
276900.000			-27.397			-3.914
277000.000			-27.397			-3.914
277102.000			-27.397			-3.914
277201.000			-27.396			-3.914
277301.000			-27.397			-3.914
277401.000			-27.396			-3.914
277500.000			-27.395			-3.914
277600.000			-27.394			-3.913
277701.000			-27.394			-3.913
277800.000			-27.394			-3.913
277901.000			-27.393			-3.913
278000.000			-27.395			-3.914
278101.000			-27.393			-3.913
278202.000			-27.392			-3.913
278301.000			-27.393			-3.913
278400.000			-27.394			-3.913
278501.000			-27.394			-3.913
278600.000			-27.393			-3.913
278700.000			-27.392			-3.913
278801.000			-27.392			-3.913
278900.000			-27.392			-3.913
279000.000			-27.391			-3.913
279102.000			-27.390			-3.913
279201.000			-27.390			-3.913
279301.000			-27.390			-3.913
279401.000			-27.390			-3.913
279500.000			-27.390			-3.913
279600.000			-27.390			-3.913
279701.000			-27.390			-3.913
279800.000			-27.389			-3.913
279900.000			-27.389			-3.913
280001.000			-27.389			-3.913
280101.000			-27.390			-3.913
280201.000			-27.389			-3.913
280302.000			-27.388			-3.913
280400.000			-27.388			-3.913
280500.000			-27.387			-3.912
280601.000			-27.387			-3.912
280700.000			-27.387			-3.912
280800.000			-27.387			-3.912
280901.000			-27.387			-3.912
281000.000			-27.387			-3.912
281102.000			-27.386			-3.912
281201.000			-27.385			-3.912
281301.000			-27.386			-3.912
281401.000			-27.386			-3.912
281500.000			-27.386			-3.912
281600.000			-27.385			-3.912
281701.000			-27.385			-3.912
281800.000			-27.386			-3.912
281900.000			-27.385			-3.912
282001.000			-27.384			-3.912
282101.000			-27.384			-3.912
282201.000			-27.385			-3.912
282301.000			-27.383			-3.912
282400.000			-27.383			-3.912
282500.000			-27.384			-3.912
282601.000			-27.383			-3.912
282700.000			-27.382			-3.912
282800.000			-27.381			-3.912
282901.000			-27.382			-3.912
283001.000			-27.382			-3.912
283101.000			-27.381			-3.912
283202.000			-27.381			-3.912
283300.000			-27.381			-3.912
283400.000			-27.382			-3.912
283501.000			-27.381			-3.912
283600.000			-27.381			-3.912
283700.000			-27.381			-3.912
283801.000			-27.380			-3.911
283900.000			-27.380			-3.911
284001.000			-27.380			-3.911
284102.000			-27.380			-3.911
284201.000			-27.380			-3.911
284301.000			-27.380			-3.911
284400.000			-27.380			-3.911
284500.000			-27.379			-3.911
284601.000			-27.379			-3.911
284700.000			-27.378			-3.911
284800.000			-27.378			-3.911
284901.000			-27.377			-3.911
285001.000			-27.377			-3.911
285101.000			-27.377			-3.911
285201.000			-27.377			-3.911
285300.000			-27.377			-3.911
285400.000			-27.376			-3.911
285501.000			-27.376			-3.911
285600.000			-27.376			-3.911
285700.000			-27.376			-3.911
285801.000			-27.376			-3.911
285900.000			-27.376			-3.911
286001.000			-27.375			-3.911
286102.000			-27.375			-3.911
286200.000			-27.374			-3.911
286300.000			-27.375			-3.911
286401.000			-27.373			-3.910
286500.000			-27.374			-3.911
286600.000			-27.373			-3.910
286701.000			-27.371			-3.910
286800.000			-27.372			-3.910
286900.000			-27.373			-3.910
287002.000			-27.373			-3.910
287101.000			-27.371			-3.910
287200.000			-27.370			-3.910
287301.000			-27.371			-3.910
287400.000			-27.371			-3.910
287501.000			-27.372			-3.910
287600.000			-27.371			-3.910
287700.000			-27.370			-3.910
287801.000			-27.369			-3.910
287901.000			-27.370			-3.910
288001.000			-27.369			-3.910
288102.000			-27.368			-3.910
288200.000			-27.368			-3.910
288300.000			-27.368			-3.910
288401.000			-27.369			-3.910
288500.000			-27.368			-3.910
288600.000			-27.368			-3.910
288701.000			-27.367			-3.910
288800.000			-27.367			-3.910
288901.000			-27.367			-3.910
289002.000			-27.367			-3.910
289101.000			-27.366			-3.909
289200.000			-27.367			-3.910
289301.000			-27.367			-3.910
289400.000			-27.366			-3.909
289500.000			-27.365			-3.909
289601.000			-27.365			-3.909
289700.000			-27.365			-3.909
289800.000			-27.365			-3.909
289902.000			-27.364			-3.909
290001.000			-27.364			-3.909
290101.000			-27.364			-3.909
290201.000			-27.364			-3.909
290300.000			-27.363			-3.909
290400.000			-27.363			-3.909
290501.000			-27.363			-3.909
290600.000			-27.364			-3.909
290701.000			-27.363			-3.909
290800.000			-27.363			-3.909
290901.000			-27.363			-3.909
291002.000			-27.362			-3.909
291101.000			-27.361			-3.909
291200.000			-27.361			-3.909
291301.000			-27.361			-3.909
291400.000			-27.361			-3.909
291500.000			-27.361			-3.909
291601.000			-27.360			-3.909
291700.000			-27.360			-3.909
291800.000			-27.360			-3.909
291902.000			-27.360			-3.909
292001.000			-27.360			-3.909
292100.000			-27.358			-3.908
292201.000			-27.359			-3.908
292300.000			-27.360			-3.909
292400.000			-27.359			-3.908
292501.000			-27.358			-3.908
292600.000			-27.359			-3.908
292700.000			-27.360			-3.909
292802.000			-27.358			-3.908
292901.000			-27.357			-3.908
293001.000			-27.357			-3.908
293101.000			-27.358			-3.908
293200.000			-27.357			-3.908
293300.000			-27.357			-3.908
293401.000			-27.357			-3.908
293500.000			-27.357			-3.908
293600.000			-27.356			-3.908
293701.000			-27.357			-3.908
293801.000			-27.356			-3.908
293902.000			-27.356			-3.908
294001.000			-27.355			-3.908
294100.000			-27.355			-3.908
294201.000			-27.355			-3.908
294300.000			-27.355			-3.908
294400.000			-27.354			-3.908
294501.000			-27.354			-3.908
294600.000			-27.354			-3.908
294700.000			-27.354			-3.908
294802.000			-27.355			-3.908
294901.000			-27.354			-3.908
295000.000			-27.353			-3.908
295101.000			-27.354			-3.908
295200.000			-27.354			-3.908
295300.000			-27.354			-3.908
295401.000			-27.353			-3.908
295500.000			-27.352			-3.907
295600.000			-27.352			-3.907
295702.000			-27.351			-3.907
295801.000			-27.352			-3.907
295901.000			-27.352			-3.907
296001.000			-27.352			-3.907
296100.000			-27.353			-3.908
296200.000			-27.352			-3.907
296301.000			-27.352			-3.907
296400.000			-27.351			-3.907
296500.000			-27.351			-3.907
296602.000			-27.351			-3.907
296701.000			-27.350			-3.907
296801.000			-27.350			-3.907
296901.000			-27.350			-3.907
297000.000			-27.350			-3.907
297101.000			-27.350			-3.907
297200.000			-27.350			-3.907
297300.000			-27.348			-3.907
297401.000			-27.349			-3.907
297500.000			-27.348			-3.907
297601.000			-27.348			-3.907
297702.000			-27.348			-3.907
297801.000			-27.349			-3.907
297900.000			-27.349			-3.907
298001.000			-27.349			-3.907
298100.000			-27.348			-3.907
298200.000			-27.348			-3.907
298301.000			-27.347			-3.907
298400.000			-27.346			-3.907
298500.000			-27.346			-3.907
298602.000			-27.347			-3.907
298701.000			-27.346			-3.907
298801.000			-27.346			-3.907
298901.000			-27.346			-3.907
299000.000			-27.347			-3.907
299100.000			-27.346			-3.907
299201.000			-27.346			-3.907
299300.000			-27.346			-3.907
299400.000			-27.345			-3.906
299501.000			-27.345			-3.906
299601.000			-27.345			-3.906
299701.000			-27.345			-3.906
299801.000			-27.344			-3.906
299900.000			-27.345			-3.906
