# Acquired on 10/01/2024 16:29:30 
# SPIDER: Creep_9mm_07714532B-1
# CREEP MEASUREMENT

# time [ms]		force [N]		stiffness [N/mm]
0.000			-45.809			-5.090
100.000			-50.322			-5.591
202.000			-50.507			-5.612
301.000			-50.103			-5.567
400.000			-49.794			-5.533
501.000			-49.557			-5.506
600.000			-49.356			-5.484
700.000			-49.183			-5.465
801.000			-48.896			-5.433
901.000			-48.773			-5.419
1001.000			-48.662			-5.407
1102.000			-48.559			-5.395
1200.000			-48.464			-5.385
1300.000			-48.375			-5.375
1401.000			-48.293			-5.366
1500.000			-48.216			-5.357
1600.000			-48.075			-5.342
1702.000			-48.010			-5.334
1801.000			-47.947			-5.327
1900.000			-47.888			-5.321
2001.000			-47.832			-5.315
2100.000			-47.779			-5.309
2200.000			-47.728			-5.303
2301.000			-47.632			-5.292
2400.000			-47.586			-5.287
2502.000			-47.542			-5.282
2601.000			-47.499			-5.278
2700.000			-47.457			-5.273
2801.000			-47.417			-5.269
2900.000			-47.378			-5.264
3000.000			-47.305			-5.256
3101.000			-47.270			-5.252
3200.000			-47.236			-5.248
3301.000			-47.203			-5.245
3402.000			-47.171			-5.241
3500.000			-47.139			-5.238
3600.000			-47.108			-5.234
3701.000			-47.050			-5.228
3800.000			-47.021			-5.225
3900.000			-46.992			-5.221
4001.000			-46.965			-5.218
4101.000			-46.939			-5.215
4201.000			-46.914			-5.213
4301.000			-46.889			-5.210
4400.000			-46.863			-5.207
4500.000			-46.814			-5.202
4601.000			-46.791			-5.199
4700.000			-46.768			-5.196
4800.000			-46.746			-5.194
4902.000			-46.725			-5.192
5001.000			-46.702			-5.189
5100.000			-46.680			-5.187
5201.000			-46.639			-5.182
5300.000			-46.619			-5.180
5400.000			-46.599			-5.178
5501.000			-46.580			-5.176
5601.000			-46.562			-5.174
5702.000			-46.542			-5.171
5800.000			-46.524			-5.169
5900.000			-46.487			-5.165
6001.000			-46.469			-5.163
6100.000			-46.450			-5.161
6200.000			-46.433			-5.159
6301.000			-46.417			-5.157
6401.000			-46.401			-5.156
6501.000			-46.384			-5.154
6601.000			-46.351			-5.150
6700.000			-46.336			-5.148
6800.000			-46.321			-5.147
6901.000			-46.306			-5.145
7000.000			-46.291			-5.143
7100.000			-46.276			-5.142
7202.000			-46.260			-5.140
7301.000			-46.244			-5.138
7400.000			-46.215			-5.135
7501.000			-46.203			-5.134
7600.000			-46.188			-5.132
7700.000			-46.174			-5.130
7801.000			-46.161			-5.129
7901.000			-46.148			-5.128
8001.000			-46.134			-5.126
8101.000			-46.109			-5.123
8200.000			-46.096			-5.122
8300.000			-46.083			-5.120
8401.000			-46.071			-5.119
8500.000			-46.057			-5.117
8600.000			-46.045			-5.116
8702.000			-46.032			-5.115
8801.000			-46.009			-5.112
8901.000			-45.997			-5.111
9000.000			-45.985			-5.109
9100.000			-45.974			-5.108
9201.000			-45.963			-5.107
9300.000			-45.951			-5.106
9400.000			-45.940			-5.104
9502.000			-45.918			-5.102
9601.000			-45.907			-5.101
9700.000			-45.896			-5.100
9801.000			-45.886			-5.098
9900.000			-45.874			-5.097
10000.000			-45.863			-5.096
10101.000			-45.854			-5.095
10200.000			-45.844			-5.094
10301.000			-45.822			-5.091
10402.000			-45.812			-5.090
10500.000			-45.803			-5.089
10600.000			-45.793			-5.088
10701.000			-45.783			-5.087
10800.000			-45.774			-5.086
10900.000			-45.765			-5.085
11001.000			-45.745			-5.083
11101.000			-45.736			-5.082
11201.000			-45.726			-5.081
11301.000			-45.717			-5.080
11400.000			-45.708			-5.079
11500.000			-45.698			-5.078
11601.000			-45.689			-5.077
11700.000			-45.671			-5.075
11800.000			-45.662			-5.074
11902.000			-45.655			-5.073
12001.000			-45.646			-5.072
12101.000			-45.638			-5.071
12200.000			-45.629			-5.070
12300.000			-45.621			-5.069
12401.000			-45.603			-5.067
12500.000			-45.595			-5.066
12600.000			-45.587			-5.065
12702.000			-45.579			-5.064
12801.000			-45.571			-5.063
12900.000			-45.564			-5.063
13001.000			-45.555			-5.062
13100.000			-45.538			-5.060
13200.000			-45.531			-5.059
13301.000			-45.524			-5.058
13400.000			-45.515			-5.057
13501.000			-45.507			-5.056
13602.000			-45.499			-5.055
13700.000			-45.491			-5.055
13800.000			-45.485			-5.054
13901.000			-45.470			-5.052
14000.000			-45.463			-5.051
14100.000			-45.456			-5.051
14201.000			-45.448			-5.050
14301.000			-45.441			-5.049
14401.000			-45.433			-5.048
14501.000			-45.426			-5.047
14600.000			-45.413			-5.046
14700.000			-45.406			-5.045
14801.000			-45.398			-5.044
14900.000			-45.391			-5.043
15000.000			-45.385			-5.043
15102.000			-45.378			-5.042
15201.000			-45.370			-5.041
15301.000			-45.357			-5.040
15400.000			-45.350			-5.039
15500.000			-45.344			-5.038
15601.000			-45.338			-5.038
15700.000			-45.330			-5.037
15800.000			-45.324			-5.036
15902.000			-45.318			-5.035
16001.000			-45.305			-5.034
16100.000			-45.298			-5.033
16201.000			-45.291			-5.032
16300.000			-45.286			-5.032
16400.000			-45.280			-5.031
16501.000			-45.274			-5.030
16600.000			-45.267			-5.030
16701.000			-45.261			-5.029
16802.000			-45.248			-5.028
16900.000			-45.243			-5.027
17000.000			-45.237			-5.026
17101.000			-45.230			-5.026
17200.000			-45.225			-5.025
17300.000			-45.218			-5.024
17401.000			-45.211			-5.023
17501.000			-45.199			-5.022
17601.000			-45.195			-5.022
17701.000			-45.190			-5.021
17800.000			-45.184			-5.020
17900.000			-45.178			-5.020
18001.000			-45.172			-5.019
18100.000			-45.167			-5.019
18200.000			-45.155			-5.017
18302.000			-45.149			-5.017
18401.000			-45.144			-5.016
18501.000			-45.139			-5.015
18600.000			-45.134			-5.015
18700.000			-45.128			-5.014
18801.000			-45.122			-5.014
18900.000			-45.112			-5.012
19000.000			-45.106			-5.012
19102.000			-45.100			-5.011
19201.000			-45.096			-5.011
19300.000			-45.090			-5.010
19401.000			-45.084			-5.009
19500.000			-45.079			-5.009
19600.000			-45.074			-5.008
19701.000			-45.063			-5.007
19800.000			-45.058			-5.006
19901.000			-45.053			-5.006
20002.000			-45.048			-5.005
20100.000			-45.043			-5.005
20200.000			-45.038			-5.004
20301.000			-45.034			-5.004
20400.000			-45.023			-5.003
20500.000			-45.018			-5.002
20601.000			-45.013			-5.001
20701.000			-45.008			-5.001
20801.000			-45.002			-5.000
20901.000			-44.998			-5.000
21000.000			-44.993			-4.999
21100.000			-44.984			-4.998
21201.000			-44.978			-4.998
21300.000			-44.973			-4.997
21401.000			-44.969			-4.997
21502.000			-44.965			-4.996
21601.000			-44.960			-4.996
21701.000			-44.955			-4.995
21800.000			-44.945			-4.994
21900.000			-44.941			-4.993
22001.000			-44.936			-4.993
22100.000			-44.931			-4.992
22200.000			-44.926			-4.992
22302.000			-44.922			-4.991
22401.000			-44.918			-4.991
22500.000			-44.914			-4.990
22601.000			-44.905			-4.989
22700.000			-44.901			-4.989
22800.000			-44.895			-4.988
22901.000			-44.891			-4.988
23001.000			-44.887			-4.987
23101.000			-44.883			-4.987
23202.000			-44.877			-4.986
23300.000			-44.869			-4.985
23400.000			-44.865			-4.985
23501.000			-44.861			-4.985
23600.000			-44.858			-4.984
23700.000			-44.853			-4.984
23801.000			-44.848			-4.983
23901.000			-44.844			-4.983
24001.000			-44.836			-4.982
24101.000			-44.831			-4.981
24200.000			-44.827			-4.981
24300.000			-44.824			-4.980
24401.000			-44.819			-4.980
24500.000			-44.814			-4.979
24600.000			-44.809			-4.979
24702.000			-44.802			-4.978
24801.000			-44.797			-4.977
24901.000			-44.793			-4.977
25000.000			-44.789			-4.977
25100.000			-44.786			-4.976
25201.000			-44.781			-4.976
25300.000			-44.778			-4.975
25400.000			-44.774			-4.975
25502.000			-44.764			-4.974
25601.000			-44.761			-4.973
25700.000			-44.756			-4.973
25801.000			-44.752			-4.972
25900.000			-44.749			-4.972
26000.000			-44.743			-4.971
26101.000			-44.740			-4.971
26200.000			-44.734			-4.970
26301.000			-44.730			-4.970
26402.000			-44.726			-4.970
26500.000			-44.723			-4.969
26600.000			-44.719			-4.969
26701.000			-44.714			-4.968
26800.000			-44.710			-4.968
26900.000			-44.703			-4.967
27001.000			-44.699			-4.967
27101.000			-44.696			-4.966
27201.000			-44.691			-4.966
27301.000			-44.687			-4.965
27400.000			-44.685			-4.965
27500.000			-44.681			-4.965
27601.000			-44.673			-4.964
27700.000			-44.669			-4.963
27800.000			-44.665			-4.963
27901.000			-44.662			-4.962
28001.000			-44.658			-4.962
28102.000			-44.655			-4.962
28200.000			-44.650			-4.961
28300.000			-44.647			-4.961
28401.000			-44.639			-4.960
28500.000			-44.636			-4.960
28600.000			-44.633			-4.959
28701.000			-44.629			-4.959
28801.000			-44.626			-4.958
28901.000			-44.623			-4.958
29001.000			-44.619			-4.958
29100.000			-44.612			-4.957
29200.000			-44.608			-4.956
29301.000			-44.605			-4.956
29400.000			-44.602			-4.956
29500.000			-44.600			-4.956
29602.000			-44.596			-4.955
29701.000			-44.591			-4.955
29800.000			-44.585			-4.954
29901.000			-44.581			-4.953
30000.000			-44.578			-4.953
30100.000			-44.575			-4.953
30201.000			-44.571			-4.952
30300.000			-44.568			-4.952
30401.000			-44.566			-4.952
30502.000			-44.557			-4.951
30600.000			-44.554			-4.950
30700.000			-44.551			-4.950
30801.000			-44.548			-4.950
30900.000			-44.545			-4.949
31000.000			-44.541			-4.949
31101.000			-44.538			-4.949
31201.000			-44.535			-4.948
31302.000			-44.528			-4.948
31400.000			-44.524			-4.947
31500.000			-44.521			-4.947
31601.000			-44.519			-4.947
31700.000			-44.517			-4.946
31800.000			-44.513			-4.946
31901.000			-44.509			-4.945
32001.000			-44.503			-4.945
32101.000			-44.501			-4.945
32201.000			-44.498			-4.944
32300.000			-44.494			-4.944
32400.000			-44.491			-4.943
32501.000			-44.488			-4.943
32600.000			-44.485			-4.943
32700.000			-44.478			-4.942
32802.000			-44.476			-4.942
32901.000			-44.472			-4.941
33000.000			-44.470			-4.941
33101.000			-44.468			-4.941
33200.000			-44.464			-4.940
33300.000			-44.460			-4.940
33401.000			-44.453			-4.939
33500.000			-44.451			-4.939
33601.000			-44.448			-4.939
33702.000			-44.446			-4.938
33800.000			-44.443			-4.938
33900.000			-44.439			-4.938
34001.000			-44.437			-4.937
34100.000			-44.434			-4.937
34200.000			-44.428			-4.936
34302.000			-44.425			-4.936
34401.000			-44.423			-4.936
34502.000			-44.419			-4.935
34600.000			-44.416			-4.935
34700.000			-44.413			-4.935
34801.000			-44.410			-4.934
34900.000			-44.403			-4.934
35000.000			-44.401			-4.933
35102.000			-44.398			-4.933
35201.000			-44.394			-4.933
35301.000			-44.392			-4.932
35401.000			-44.390			-4.932
35500.000			-44.389			-4.932
35600.000			-44.382			-4.931
35701.000			-44.379			-4.931
35800.000			-44.376			-4.931
35900.000			-44.374			-4.930
36002.000			-44.371			-4.930
36101.000			-44.369			-4.930
36200.000			-44.365			-4.929
36301.000			-44.360			-4.929
36400.000			-44.356			-4.928
36500.000			-44.354			-4.928
36601.000			-44.351			-4.928
36700.000			-44.347			-4.927
36801.000			-44.345			-4.927
36902.000			-44.342			-4.927
37000.000			-44.340			-4.927
37100.000			-44.335			-4.926
37201.000			-44.332			-4.926
37300.000			-44.330			-4.926
37400.000			-44.326			-4.925
37501.000			-44.324			-4.925
37601.000			-44.322			-4.925
37702.000			-44.321			-4.925
37800.000			-44.315			-4.924
37900.000			-44.312			-4.924
38001.000			-44.309			-4.923
38100.000			-44.306			-4.923
38200.000			-44.304			-4.923
38301.000			-44.302			-4.922
38401.000			-44.298			-4.922
38501.000			-44.293			-4.921
38601.000			-44.291			-4.921
38700.000			-44.288			-4.921
38800.000			-44.285			-4.921
38901.000			-44.282			-4.920
39000.000			-44.279			-4.920
39100.000			-44.276			-4.920
39202.000			-44.272			-4.919
39301.000			-44.270			-4.919
39400.000			-44.269			-4.919
39501.000			-44.266			-4.918
39600.000			-44.263			-4.918
39700.000			-44.260			-4.918
39801.000			-44.258			-4.918
39900.000			-44.256			-4.917
40001.000			-44.251			-4.917
40102.000			-44.248			-4.916
40200.000			-44.245			-4.916
40300.000			-44.243			-4.916
40401.000			-44.241			-4.916
40500.000			-44.239			-4.915
40600.000			-44.236			-4.915
40701.000			-44.231			-4.915
40801.000			-44.228			-4.914
40902.000			-44.226			-4.914
41000.000			-44.223			-4.914
41100.000			-44.220			-4.913
41201.000			-44.218			-4.913
41300.000			-44.216			-4.913
41400.000			-44.211			-4.912
41502.000			-44.209			-4.912
41601.000			-44.206			-4.912
41700.000			-44.204			-4.912
41801.000			-44.201			-4.911
41900.000			-44.199			-4.911
42000.000			-44.197			-4.911
42101.000			-44.192			-4.910
42200.000			-44.190			-4.910
42301.000			-44.188			-4.910
42402.000			-44.184			-4.909
42500.000			-44.182			-4.909
42600.000			-44.181			-4.909
42701.000			-44.178			-4.909
42800.000			-44.176			-4.908
42900.000			-44.170			-4.908
43001.000			-44.168			-4.908
43101.000			-44.166			-4.907
43201.000			-44.164			-4.907
43301.000			-44.161			-4.907
43400.000			-44.159			-4.907
43500.000			-44.158			-4.906
43601.000			-44.153			-4.906
43700.000			-44.151			-4.906
43800.000			-44.148			-4.905
43902.000			-44.146			-4.905
44001.000			-44.144			-4.905
44101.000			-44.143			-4.905
44200.000			-44.140			-4.904
44300.000			-44.135			-4.904
44401.000			-44.133			-4.904
44500.000			-44.132			-4.904
44600.000			-44.128			-4.903
44702.000			-44.125			-4.903
44801.000			-44.124			-4.903
44900.000			-44.122			-4.902
45001.000			-44.117			-4.902
45100.000			-44.116			-4.902
45200.000			-44.113			-4.901
45301.000			-44.110			-4.901
45401.000			-44.108			-4.901
45501.000			-44.105			-4.901
45601.000			-44.103			-4.900
45700.000			-44.102			-4.900
45800.000			-44.097			-4.900
45901.000			-44.095			-4.899
46000.000			-44.093			-4.899
46100.000			-44.091			-4.899
46202.000			-44.089			-4.899
46301.000			-44.085			-4.898
46400.000			-44.084			-4.898
46501.000			-44.079			-4.898
46600.000			-44.077			-4.897
46700.000			-44.076			-4.897
46801.000			-44.073			-4.897
46900.000			-44.070			-4.897
47001.000			-44.069			-4.897
47102.000			-44.067			-4.896
47201.000			-44.062			-4.896
47301.000			-44.061			-4.896
47400.000			-44.060			-4.896
47500.000			-44.057			-4.895
47601.000			-44.054			-4.895
47700.000			-44.052			-4.895
47801.000			-44.050			-4.894
47902.000			-44.047			-4.894
48001.000			-44.044			-4.894
48100.000			-44.043			-4.894
48201.000			-44.040			-4.893
48300.000			-44.038			-4.893
48400.000			-44.036			-4.893
48501.000			-44.035			-4.893
48601.000			-44.032			-4.892
48701.000			-44.027			-4.892
48801.000			-44.026			-4.892
48900.000			-44.024			-4.892
49000.000			-44.021			-4.891
49101.000			-44.018			-4.891
49200.000			-44.018			-4.891
49300.000			-44.016			-4.891
49402.000			-44.010			-4.890
49501.000			-44.010			-4.890
49600.000			-44.008			-4.890
49701.000			-44.006			-4.890
49800.000			-44.004			-4.889
49900.000			-44.001			-4.889
50001.000			-43.999			-4.889
50100.000			-43.996			-4.888
50201.000			-43.993			-4.888
50302.000			-43.991			-4.888
50400.000			-43.990			-4.888
50501.000			-43.988			-4.888
50600.000			-43.986			-4.887
50700.000			-43.984			-4.887
50801.000			-43.981			-4.887
50900.000			-43.978			-4.886
51000.000			-43.976			-4.886
51102.000			-43.974			-4.886
51201.000			-43.972			-4.886
51300.000			-43.971			-4.886
51401.000			-43.968			-4.885
51500.000			-43.966			-4.885
51600.000			-43.963			-4.885
51701.000			-43.959			-4.884
51800.000			-43.957			-4.884
51901.000			-43.957			-4.884
52002.000			-43.956			-4.884
52100.000			-43.953			-4.884
52200.000			-43.951			-4.883
52301.000			-43.948			-4.883
52400.000			-43.945			-4.883
52500.000			-43.943			-4.883
52601.000			-43.942			-4.882
52701.000			-43.939			-4.882
52801.000			-43.937			-4.882
52901.000			-43.936			-4.882
53000.000			-43.932			-4.881
53100.000			-43.931			-4.881
53201.000			-43.929			-4.881
53300.000			-43.927			-4.881
53400.000			-43.925			-4.881
53502.000			-43.923			-4.880
53601.000			-43.921			-4.880
53701.000			-43.919			-4.880
53800.000			-43.917			-4.880
53900.000			-43.914			-4.879
54001.000			-43.911			-4.879
54100.000			-43.909			-4.879
54200.000			-43.907			-4.879
54302.000			-43.906			-4.878
54401.000			-43.904			-4.878
54500.000			-43.899			-4.878
54601.000			-43.898			-4.878
54700.000			-43.897			-4.877
54800.000			-43.896			-4.877
54901.000			-43.894			-4.877
55000.000			-43.892			-4.877
55101.000			-43.890			-4.877
55202.000			-43.885			-4.876
55300.000			-43.884			-4.876
55400.000			-43.883			-4.876
55501.000			-43.881			-4.876
55600.000			-43.878			-4.875
55700.000			-43.876			-4.875
55801.000			-43.875			-4.875
55901.000			-43.872			-4.875
56001.000			-43.869			-4.874
56101.000			-43.867			-4.874
56200.000			-43.866			-4.874
56300.000			-43.865			-4.874
56401.000			-43.863			-4.874
56500.000			-43.862			-4.874
56600.000			-43.858			-4.873
56702.000			-43.856			-4.873
56801.000			-43.854			-4.873
56901.000			-43.852			-4.872
57000.000			-43.850			-4.872
57100.000			-43.848			-4.872
57201.000			-43.847			-4.872
57300.000			-43.845			-4.872
57400.000			-43.842			-4.871
57501.000			-43.840			-4.871
57601.000			-43.840			-4.871
57701.000			-43.838			-4.871
57801.000			-43.835			-4.871
57900.000			-43.833			-4.870
58000.000			-43.831			-4.870
58101.000			-43.829			-4.870
58200.000			-43.826			-4.870
58300.000			-43.824			-4.869
58402.000			-43.823			-4.869
58501.000			-43.821			-4.869
58600.000			-43.819			-4.869
58701.000			-43.818			-4.869
58800.000			-43.814			-4.868
58900.000			-43.813			-4.868
59001.000			-43.811			-4.868
59100.000			-43.809			-4.868
59201.000			-43.807			-4.867
59302.000			-43.806			-4.867
59400.000			-43.806			-4.867
59500.000			-43.802			-4.867
59601.000			-43.800			-4.867
59700.000			-43.798			-4.866
59800.000			-43.797			-4.866
59901.000			-43.796			-4.866
60001.000			-43.793			-4.866
60102.000			-43.792			-4.866
60201.000			-43.790			-4.866
60300.000			-43.787			-4.865
60401.000			-43.785			-4.865
60500.000			-43.783			-4.865
60600.000			-43.781			-4.865
60701.000			-43.779			-4.864
60800.000			-43.778			-4.864
60901.000			-43.777			-4.864
61002.000			-43.774			-4.864
61100.000			-43.772			-4.864
61200.000			-43.770			-4.863
61301.000			-43.768			-4.863
61400.000			-43.766			-4.863
61500.000			-43.764			-4.863
61601.000			-43.763			-4.863
61701.000			-43.760			-4.862
61801.000			-43.759			-4.862
61901.000			-43.756			-4.862
62000.000			-43.755			-4.862
62100.000			-43.754			-4.862
62201.000			-43.752			-4.861
62300.000			-43.750			-4.861
62400.000			-43.747			-4.861
62502.000			-43.745			-4.861
62601.000			-43.743			-4.860
62700.000			-43.742			-4.860
62801.000			-43.741			-4.860
62900.000			-43.739			-4.860
63000.000			-43.738			-4.860
63101.000			-43.736			-4.860
63200.000			-43.732			-4.859
63302.000			-43.730			-4.859
63401.000			-43.729			-4.859
63500.000			-43.728			-4.859
63601.000			-43.726			-4.858
63700.000			-43.725			-4.858
63800.000			-43.724			-4.858
63901.000			-43.719			-4.858
64000.000			-43.718			-4.858
64101.000			-43.716			-4.857
64202.000			-43.715			-4.857
64300.000			-43.713			-4.857
64400.000			-43.711			-4.857
64501.000			-43.709			-4.857
64600.000			-43.707			-4.856
64700.000			-43.705			-4.856
64801.000			-43.703			-4.856
64901.000			-43.702			-4.856
65001.000			-43.701			-4.856
65101.000			-43.698			-4.855
65200.000			-43.697			-4.855
65300.000			-43.694			-4.855
65401.000			-43.693			-4.855
65500.000			-43.692			-4.855
65600.000			-43.691			-4.855
65702.000			-43.689			-4.854
65801.000			-43.688			-4.854
65900.000			-43.687			-4.854
66001.000			-43.685			-4.854
66100.000			-43.682			-4.854
66200.000			-43.681			-4.853
66301.000			-43.679			-4.853
66400.000			-43.676			-4.853
66502.000			-43.675			-4.853
66601.000			-43.674			-4.853
66701.000			-43.672			-4.852
66801.000			-43.670			-4.852
66900.000			-43.668			-4.852
67000.000			-43.667			-4.852
67101.000			-43.666			-4.852
67200.000			-43.664			-4.852
67300.000			-43.662			-4.851
67402.000			-43.660			-4.851
67501.000			-43.658			-4.851
67600.000			-43.655			-4.851
67701.000			-43.654			-4.850
67800.000			-43.653			-4.850
67900.000			-43.651			-4.850
68001.000			-43.650			-4.850
68100.000			-43.649			-4.850
68201.000			-43.646			-4.850
68302.000			-43.644			-4.849
68400.000			-43.642			-4.849
68500.000			-43.641			-4.849
68601.000			-43.639			-4.849
68700.000			-43.638			-4.849
68800.000			-43.637			-4.849
68901.000			-43.636			-4.848
69001.000			-43.633			-4.848
69101.000			-43.631			-4.848
69202.000			-43.630			-4.848
69300.000			-43.629			-4.848
69400.000			-43.627			-4.847
69501.000			-43.625			-4.847
69600.000			-43.624			-4.847
69701.000			-43.620			-4.847
69800.000			-43.620			-4.847
69901.000			-43.619			-4.847
70002.000			-43.616			-4.846
70100.000			-43.614			-4.846
70200.000			-43.612			-4.846
70301.000			-43.611			-4.846
70400.000			-43.610			-4.846
70500.000			-43.608			-4.845
70601.000			-43.606			-4.845
70701.000			-43.604			-4.845
70801.000			-43.604			-4.845
70901.000			-43.602			-4.845
71000.000			-43.601			-4.845
71100.000			-43.599			-4.844
71201.000			-43.598			-4.844
71300.000			-43.596			-4.844
71400.000			-43.595			-4.844
71502.000			-43.592			-4.844
71601.000			-43.591			-4.843
71700.000			-43.590			-4.843
71801.000			-43.588			-4.843
71900.000			-43.587			-4.843
72000.000			-43.586			-4.843
72101.000			-43.585			-4.843
72200.000			-43.582			-4.842
72300.000			-43.581			-4.842
72402.000			-43.580			-4.842
72501.000			-43.579			-4.842
72600.000			-43.575			-4.842
72701.000			-43.574			-4.842
72800.000			-43.573			-4.841
72901.000			-43.573			-4.841
73000.000			-43.571			-4.841
73100.000			-43.569			-4.841
73202.000			-43.568			-4.841
73301.000			-43.565			-4.841
73400.000			-43.563			-4.840
73501.000			-43.562			-4.840
73600.000			-43.561			-4.840
73700.000			-43.559			-4.840
73801.000			-43.558			-4.840
73900.000			-43.558			-4.840
74001.000			-43.555			-4.839
74102.000			-43.554			-4.839
74200.000			-43.554			-4.839
74300.000			-43.552			-4.839
74401.000			-43.549			-4.839
74500.000			-43.547			-4.839
74600.000			-43.547			-4.839
74701.000			-43.545			-4.838
74801.000			-43.544			-4.838
74901.000			-43.543			-4.838
75001.000			-43.542			-4.838
75100.000			-43.540			-4.838
75200.000			-43.538			-4.838
75301.000			-43.536			-4.837
75400.000			-43.535			-4.837
75500.000			-43.533			-4.837
75602.000			-43.532			-4.837
75701.000			-43.530			-4.837
75800.000			-43.529			-4.837
75901.000			-43.528			-4.836
76000.000			-43.527			-4.836
76101.000			-43.524			-4.836
76200.000			-43.522			-4.836
76300.000			-43.522			-4.836
76402.000			-43.520			-4.836
76501.000			-43.519			-4.835
76601.000			-43.518			-4.835
76701.000			-43.516			-4.835
76800.000			-43.514			-4.835
76900.000			-43.512			-4.835
77001.000			-43.512			-4.835
77100.000			-43.511			-4.835
77200.000			-43.510			-4.834
77302.000			-43.508			-4.834
77401.000			-43.507			-4.834
77500.000			-43.505			-4.834
77601.000			-43.502			-4.834
77700.000			-43.502			-4.834
77800.000			-43.500			-4.833
77901.000			-43.499			-4.833
78000.000			-43.498			-4.833
78101.000			-43.497			-4.833
78202.000			-43.496			-4.833
78301.000			-43.494			-4.833
78400.000			-43.490			-4.832
78501.000			-43.489			-4.832
78600.000			-43.489			-4.832
78700.000			-43.488			-4.832
78801.000			-43.486			-4.832
78900.000			-43.485			-4.832
79001.000			-43.483			-4.831
79102.000			-43.482			-4.831
79200.000			-43.481			-4.831
79301.000			-43.478			-4.831
79400.000			-43.477			-4.831
79500.000			-43.477			-4.831
79601.000			-43.475			-4.831
79700.000			-43.474			-4.830
79801.000			-43.471			-4.830
79902.000			-43.470			-4.830
80001.000			-43.470			-4.830
80100.000			-43.467			-4.830
80201.000			-43.466			-4.830
80300.000			-43.464			-4.829
80400.000			-43.464			-4.829
80501.000			-43.463			-4.829
80600.000			-43.460			-4.829
80701.000			-43.459			-4.829
80802.000			-43.458			-4.829
80900.000			-43.456			-4.828
81000.000			-43.455			-4.828
81101.000			-43.454			-4.828
81200.000			-43.452			-4.828
81300.000			-43.450			-4.828
81401.000			-43.449			-4.828
81501.000			-43.448			-4.828
81601.000			-43.446			-4.827
81701.000			-43.445			-4.827
81800.000			-43.444			-4.827
81900.000			-43.443			-4.827
82001.000			-43.440			-4.827
82100.000			-43.439			-4.827
82200.000			-43.438			-4.826
82302.000			-43.436			-4.826
82401.000			-43.434			-4.826
82501.000			-43.434			-4.826
82600.000			-43.434			-4.826
82700.000			-43.430			-4.826
82801.000			-43.428			-4.825
82900.000			-43.429			-4.825
83000.000			-43.428			-4.825
83102.000			-43.426			-4.825
83201.000			-43.423			-4.825
83300.000			-43.422			-4.825
83401.000			-43.421			-4.825
83500.000			-43.419			-4.824
83600.000			-43.418			-4.824
83701.000			-43.418			-4.824
83800.000			-43.416			-4.824
83901.000			-43.414			-4.824
84002.000			-43.412			-4.824
84100.000			-43.411			-4.823
84200.000			-43.408			-4.823
84301.000			-43.407			-4.823
84400.000			-43.407			-4.823
84500.000			-43.405			-4.823
84601.000			-43.404			-4.823
84701.000			-43.403			-4.823
84801.000			-43.401			-4.822
84901.000			-43.399			-4.822
85000.000			-43.398			-4.822
85100.000			-43.396			-4.822
85201.000			-43.396			-4.822
85300.000			-43.395			-4.822
85400.000			-43.393			-4.821
85502.000			-43.391			-4.821
85601.000			-43.389			-4.821
85701.000			-43.389			-4.821
85800.000			-43.388			-4.821
85900.000			-43.386			-4.821
86001.000			-43.384			-4.820
86100.000			-43.383			-4.820
86200.000			-43.383			-4.820
86301.000			-43.380			-4.820
86401.000			-43.379			-4.820
86501.000			-43.378			-4.820
86601.000			-43.377			-4.820
86700.000			-43.375			-4.819
86800.000			-43.374			-4.819
86901.000			-43.374			-4.819
87000.000			-43.373			-4.819
87100.000			-43.371			-4.819
87202.000			-43.369			-4.819
87301.000			-43.368			-4.819
87400.000			-43.368			-4.819
87501.000			-43.367			-4.819
87600.000			-43.365			-4.818
87700.000			-43.364			-4.818
87801.000			-43.363			-4.818
87900.000			-43.360			-4.818
88000.000			-43.360			-4.818
88102.000			-43.359			-4.818
88201.000			-43.357			-4.817
88300.000			-43.355			-4.817
88401.000			-43.355			-4.817
88500.000			-43.354			-4.817
88600.000			-43.354			-4.817
88701.000			-43.351			-4.817
88800.000			-43.350			-4.817
88902.000			-43.350			-4.817
89001.000			-43.348			-4.816
89100.000			-43.347			-4.816
89201.000			-43.346			-4.816
89300.000			-43.344			-4.816
89400.000			-43.343			-4.816
89501.000			-43.341			-4.816
89600.000			-43.340			-4.816
89701.000			-43.339			-4.815
89802.000			-43.338			-4.815
89901.000			-43.337			-4.815
90000.000			-43.334			-4.815
90101.000			-43.334			-4.815
90200.000			-43.334			-4.815
90300.000			-43.333			-4.815
90401.000			-43.332			-4.815
90501.000			-43.330			-4.814
90601.000			-43.330			-4.814
90701.000			-43.327			-4.814
90800.000			-43.326			-4.814
90900.000			-43.325			-4.814
91001.000			-43.324			-4.814
91100.000			-43.323			-4.814
91200.000			-43.322			-4.814
91302.000			-43.320			-4.813
91401.000			-43.318			-4.813
91500.000			-43.317			-4.813
91601.000			-43.317			-4.813
91700.000			-43.315			-4.813
91800.000			-43.313			-4.813
91901.000			-43.313			-4.813
92000.000			-43.311			-4.812
92102.000			-43.310			-4.812
92201.000			-43.310			-4.812
92301.000			-43.309			-4.812
92401.000			-43.306			-4.812
92500.000			-43.304			-4.812
92600.000			-43.303			-4.811
92701.000			-43.303			-4.811
92800.000			-43.303			-4.811
92901.000			-43.301			-4.811
93002.000			-43.301			-4.811
93101.000			-43.300			-4.811
93200.000			-43.298			-4.811
93301.000			-43.297			-4.811
93400.000			-43.296			-4.811
93500.000			-43.295			-4.811
93601.000			-43.291			-4.810
93701.000			-43.290			-4.810
93801.000			-43.289			-4.810
93902.000			-43.288			-4.810
94000.000			-43.288			-4.810
94100.000			-43.286			-4.810
94201.000			-43.285			-4.809
94300.000			-43.283			-4.809
94400.000			-43.282			-4.809
94501.000			-43.281			-4.809
94601.000			-43.280			-4.809
94701.000			-43.279			-4.809
94801.000			-43.279			-4.809
94900.000			-43.277			-4.809
95000.000			-43.276			-4.808
95101.000			-43.275			-4.808
95200.000			-43.274			-4.808
95301.000			-43.271			-4.808
95401.000			-43.270			-4.808
95501.000			-43.270			-4.808
95602.000			-43.269			-4.808
95700.000			-43.268			-4.808
95800.000			-43.266			-4.807
95901.000			-43.265			-4.807
96000.000			-43.264			-4.807
96100.000			-43.263			-4.807
96201.000			-43.262			-4.807
96301.000			-43.261			-4.807
96401.000			-43.260			-4.807
96501.000			-43.257			-4.806
96600.000			-43.256			-4.806
96700.000			-43.255			-4.806
96801.000			-43.255			-4.806
96900.000			-43.254			-4.806
97000.000			-43.253			-4.806
97102.000			-43.251			-4.806
97201.000			-43.249			-4.805
97300.000			-43.248			-4.805
97401.000			-43.247			-4.805
97500.000			-43.246			-4.805
97600.000			-43.246			-4.805
97701.000			-43.245			-4.805
97800.000			-43.244			-4.805
97901.000			-43.241			-4.805
98002.000			-43.241			-4.805
98101.000			-43.239			-4.804
98200.000			-43.239			-4.804
98301.000			-43.237			-4.804
98400.000			-43.236			-4.804
98501.000			-43.235			-4.804
98600.000			-43.234			-4.804
98700.000			-43.232			-4.804
98802.000			-43.231			-4.803
98901.000			-43.231			-4.803
99000.000			-43.230			-4.803
99101.000			-43.229			-4.803
99200.000			-43.229			-4.803
99300.000			-43.227			-4.803
99401.000			-43.225			-4.803
99500.000			-43.224			-4.803
99601.000			-43.223			-4.803
99702.000			-43.221			-4.802
99800.000			-43.220			-4.802
99900.000			-43.219			-4.802
100001.000			-43.219			-4.802
100100.000			-43.216			-4.802
100200.000			-43.215			-4.802
100301.000			-43.214			-4.802
100401.000			-43.214			-4.802
100501.000			-43.213			-4.801
100601.000			-43.211			-4.801
100700.000			-43.210			-4.801
100800.000			-43.210			-4.801
100901.000			-43.207			-4.801
101000.000			-43.205			-4.801
101100.000			-43.204			-4.800
101202.000			-43.204			-4.800
101301.000			-43.203			-4.800
101400.000			-43.202			-4.800
101501.000			-43.202			-4.800
101600.000			-43.199			-4.800
101701.000			-43.199			-4.800
101800.000			-43.199			-4.800
101900.000			-43.197			-4.800
102001.000			-43.195			-4.799
102101.000			-43.195			-4.799
102201.000			-43.195			-4.799
102301.000			-43.192			-4.799
102400.000			-43.192			-4.799
102500.000			-43.190			-4.799
102601.000			-43.189			-4.799
102700.000			-43.188			-4.799
102800.000			-43.187			-4.799
102902.000			-43.186			-4.798
103001.000			-43.184			-4.798
103100.000			-43.183			-4.798
103201.000			-43.182			-4.798
103300.000			-43.182			-4.798
103400.000			-43.181			-4.798
103501.000			-43.180			-4.798
103600.000			-43.179			-4.798
103701.000			-43.177			-4.797
103802.000			-43.176			-4.797
103900.000			-43.175			-4.797
104000.000			-43.174			-4.797
104101.000			-43.173			-4.797
104200.000			-43.171			-4.797
104300.000			-43.170			-4.797
104401.000			-43.169			-4.797
104501.000			-43.169			-4.797
104601.000			-43.168			-4.796
104702.000			-43.166			-4.796
104800.000			-43.165			-4.796
104901.000			-43.164			-4.796
105000.000			-43.162			-4.796
105100.000			-43.161			-4.796
105201.000			-43.160			-4.796
105300.000			-43.160			-4.796
105401.000			-43.159			-4.795
105502.000			-43.159			-4.795
105600.000			-43.158			-4.795
105700.000			-43.157			-4.795
105801.000			-43.156			-4.795
105900.000			-43.153			-4.795
106000.000			-43.152			-4.795
106101.000			-43.151			-4.795
106201.000			-43.150			-4.794
106301.000			-43.149			-4.794
106401.000			-43.147			-4.794
106500.000			-43.146			-4.794
106600.000			-43.147			-4.794
106701.000			-43.146			-4.794
106800.000			-43.145			-4.794
106900.000			-43.144			-4.794
107002.000			-43.143			-4.794
107101.000			-43.141			-4.793
107201.000			-43.139			-4.793
107301.000			-43.139			-4.793
107400.000			-43.137			-4.793
107500.000			-43.135			-4.793
107601.000			-43.135			-4.793
107700.000			-43.135			-4.793
107800.000			-43.134			-4.793
107902.000			-43.133			-4.793
108001.000			-43.132			-4.792
108101.000			-43.130			-4.792
108200.000			-43.129			-4.792
108300.000			-43.129			-4.792
108401.000			-43.128			-4.792
108500.000			-43.127			-4.792
108600.000			-43.125			-4.792
108702.000			-43.123			-4.791
108801.000			-43.123			-4.791
108900.000			-43.123			-4.791
109001.000			-43.120			-4.791
109100.000			-43.120			-4.791
109200.000			-43.119			-4.791
109301.000			-43.118			-4.791
109400.000			-43.117			-4.791
109501.000			-43.116			-4.791
109602.000			-43.115			-4.791
109701.000			-43.113			-4.790
109800.000			-43.112			-4.790
109901.000			-43.112			-4.790
110000.000			-43.111			-4.790
110100.000			-43.110			-4.790
110201.000			-43.109			-4.790
110301.000			-43.108			-4.790
110401.000			-43.106			-4.790
110501.000			-43.105			-4.789
110600.000			-43.104			-4.789
110700.000			-43.104			-4.789
110801.000			-43.103			-4.789
110900.000			-43.102			-4.789
111000.000			-43.100			-4.789
111102.000			-43.099			-4.789
111201.000			-43.098			-4.789
111301.000			-43.098			-4.789
111400.000			-43.097			-4.789
111500.000			-43.095			-4.788
111601.000			-43.094			-4.788
111700.000			-43.094			-4.788
111800.000			-43.093			-4.788
111901.000			-43.092			-4.788
112001.000			-43.089			-4.788
112101.000			-43.089			-4.788
112201.000			-43.088			-4.788
112300.000			-43.087			-4.787
112400.000			-43.087			-4.787
112501.000			-43.086			-4.787
112600.000			-43.085			-4.787
112700.000			-43.083			-4.787
112802.000			-43.084			-4.787
112901.000			-43.082			-4.787
113000.000			-43.082			-4.787
113101.000			-43.081			-4.787
113200.000			-43.078			-4.786
113300.000			-43.078			-4.786
113401.000			-43.077			-4.786
113500.000			-43.076			-4.786
113601.000			-43.075			-4.786
113702.000			-43.074			-4.786
113801.000			-43.074			-4.786
113900.000			-43.071			-4.786
114001.000			-43.070			-4.786
114100.000			-43.070			-4.786
114200.000			-43.070			-4.786
114301.000			-43.067			-4.785
114400.000			-43.067			-4.785
114502.000			-43.066			-4.785
114601.000			-43.065			-4.785
114700.000			-43.063			-4.785
114801.000			-43.063			-4.785
114900.000			-43.062			-4.785
115000.000			-43.061			-4.785
115101.000			-43.060			-4.784
115200.000			-43.060			-4.784
115301.000			-43.059			-4.784
115402.000			-43.058			-4.784
115500.000			-43.056			-4.784
115600.000			-43.055			-4.784
115701.000			-43.054			-4.784
115800.000			-43.054			-4.784
115900.000			-43.053			-4.784
116001.000			-43.052			-4.784
116101.000			-43.051			-4.783
116201.000			-43.049			-4.783
116301.000			-43.048			-4.783
116400.000			-43.047			-4.783
116500.000			-43.046			-4.783
116601.000			-43.045			-4.783
116700.000			-43.044			-4.783
116800.000			-43.043			-4.783
116902.000			-43.043			-4.783
117001.000			-43.041			-4.782
117100.000			-43.041			-4.782
117201.000			-43.039			-4.782
117300.000			-43.037			-4.782
117400.000			-43.038			-4.782
117501.000			-43.036			-4.782
117600.000			-43.035			-4.782
117701.000			-43.035			-4.782
117801.000			-43.034			-4.782
117901.000			-43.033			-4.781
118001.000			-43.032			-4.781
118100.000			-43.031			-4.781
118200.000			-43.032			-4.781
118301.000			-43.029			-4.781
118400.000			-43.028			-4.781
118500.000			-43.027			-4.781
118602.000			-43.026			-4.781
118701.000			-43.025			-4.781
118800.000			-43.025			-4.781
118901.000			-43.025			-4.781
119000.000			-43.022			-4.780
119100.000			-43.021			-4.780
119201.000			-43.021			-4.780
119300.000			-43.020			-4.780
119401.000			-43.019			-4.780
119502.000			-43.018			-4.780
119600.000			-43.019			-4.780
119700.000			-43.015			-4.779
119801.000			-43.014			-4.779
119900.000			-43.014			-4.779
120000.000			-43.013			-4.779
120101.000			-43.012			-4.779
120201.000			-43.011			-4.779
120301.000			-43.011			-4.779
120401.000			-43.008			-4.779
120500.000			-43.007			-4.779
120600.000			-43.007			-4.779
120701.000			-43.007			-4.779
120800.000			-43.007			-4.779
120901.000			-43.005			-4.778
121001.000			-43.005			-4.778
121101.000			-43.004			-4.778
121201.000			-43.002			-4.778
121300.000			-43.001			-4.778
121400.000			-42.999			-4.778
121501.000			-42.998			-4.778
121600.000			-42.999			-4.778
121700.000			-42.999			-4.778
121801.000			-42.998			-4.778
121901.000			-42.996			-4.777
122001.000			-42.994			-4.777
122101.000			-42.993			-4.777
122200.000			-42.993			-4.777
122300.000			-42.992			-4.777
122401.000			-42.992			-4.777
122500.000			-42.990			-4.777
122600.000			-42.989			-4.777
122701.000			-42.989			-4.777
122801.000			-42.988			-4.776
122901.000			-42.988			-4.776
123001.000			-42.986			-4.776
123100.000			-42.984			-4.776
123200.000			-42.984			-4.776
123301.000			-42.982			-4.776
123400.000			-42.982			-4.776
123500.000			-42.981			-4.776
123602.000			-42.980			-4.776
123701.000			-42.980			-4.776
123801.000			-42.979			-4.775
123901.000			-42.978			-4.775
124000.000			-42.977			-4.775
124101.000			-42.975			-4.775
124200.000			-42.975			-4.775
124300.000			-42.973			-4.775
124401.000			-42.973			-4.775
124501.000			-42.973			-4.775
124601.000			-42.972			-4.775
124701.000			-42.971			-4.775
124800.000			-42.969			-4.774
124900.000			-42.969			-4.774
125001.000			-42.968			-4.774
125100.000			-42.966			-4.774
125200.000			-42.966			-4.774
125301.000			-42.966			-4.774
125401.000			-42.965			-4.774
125501.000			-42.961			-4.773
125601.000			-42.960			-4.773
125700.000			-42.961			-4.773
125800.000			-42.961			-4.773
125901.000			-42.959			-4.773
126000.000			-42.959			-4.773
126100.000			-42.958			-4.773
126201.000			-42.957			-4.773
126301.000			-42.956			-4.773
126401.000			-42.956			-4.773
126501.000			-42.955			-4.773
126600.000			-42.953			-4.773
126700.000			-42.953			-4.773
126801.000			-42.953			-4.773
126900.000			-42.952			-4.772
127000.000			-42.950			-4.772
127102.000			-42.948			-4.772
127201.000			-42.948			-4.772
127302.000			-42.947			-4.772
127400.000			-42.946			-4.772
127500.000			-42.945			-4.772
127601.000			-42.945			-4.772
127700.000			-42.943			-4.771
127800.000			-42.942			-4.771
127901.000			-42.941			-4.771
128001.000			-42.940			-4.771
128101.000			-42.940			-4.771
128201.000			-42.940			-4.771
128300.000			-42.940			-4.771
128400.000			-42.937			-4.771
128501.000			-42.936			-4.771
128600.000			-42.935			-4.771
128700.000			-42.935			-4.771
128801.000			-42.934			-4.770
128901.000			-42.934			-4.770
129001.000			-42.933			-4.770
129101.000			-42.932			-4.770
129200.000			-42.931			-4.770
129300.000			-42.930			-4.770
129401.000			-42.930			-4.770
129500.000			-42.929			-4.770
129600.000			-42.927			-4.770
129701.000			-42.926			-4.770
129801.000			-42.926			-4.770
129901.000			-42.924			-4.769
130001.000			-42.925			-4.769
130100.000			-42.923			-4.769
130200.000			-42.923			-4.769
130301.000			-42.922			-4.769
130400.000			-42.920			-4.769
130501.000			-42.920			-4.769
130601.000			-42.918			-4.769
130701.000			-42.918			-4.769
130801.000			-42.917			-4.769
130900.000			-42.916			-4.768
131000.000			-42.916			-4.768
131101.000			-42.915			-4.768
131200.000			-42.914			-4.768
131300.000			-42.912			-4.768
131402.000			-42.912			-4.768
131501.000			-42.911			-4.768
131601.000			-42.911			-4.768
131701.000			-42.910			-4.768
131800.000			-42.908			-4.768
131900.000			-42.906			-4.767
132001.000			-42.906			-4.767
132100.000			-42.906			-4.767
132200.000			-42.905			-4.767
132301.000			-42.904			-4.767
132401.000			-42.903			-4.767
132501.000			-42.903			-4.767
132601.000			-42.903			-4.767
132700.000			-42.900			-4.767
132800.000			-42.900			-4.767
132901.000			-42.898			-4.766
133000.000			-42.897			-4.766
133100.000			-42.897			-4.766
133201.000			-42.897			-4.766
133301.000			-42.896			-4.766
133401.000			-42.895			-4.766
133501.000			-42.894			-4.766
133600.000			-42.894			-4.766
133701.000			-42.894			-4.766
133800.000			-42.892			-4.766
133900.000			-42.891			-4.766
134001.000			-42.890			-4.766
134100.000			-42.890			-4.766
134200.000			-42.888			-4.765
134302.000			-42.886			-4.765
134401.000			-42.886			-4.765
134500.000			-42.885			-4.765
134601.000			-42.885			-4.765
134700.000			-42.884			-4.765
134800.000			-42.883			-4.765
134901.000			-42.883			-4.765
135000.000			-42.881			-4.765
135100.000			-42.881			-4.765
135202.000			-42.880			-4.764
135301.000			-42.879			-4.764
135401.000			-42.877			-4.764
135501.000			-42.876			-4.764
135600.000			-42.876			-4.764
135700.000			-42.875			-4.764
135801.000			-42.874			-4.764
135900.000			-42.874			-4.764
136000.000			-42.873			-4.764
136101.000			-42.871			-4.763
136201.000			-42.870			-4.763
136301.000			-42.870			-4.763
136401.000			-42.868			-4.763
136500.000			-42.868			-4.763
136600.000			-42.868			-4.763
136701.000			-42.867			-4.763
136800.000			-42.867			-4.763
136901.000			-42.866			-4.763
137000.000			-42.865			-4.763
137101.000			-42.865			-4.763
137202.000			-42.863			-4.763
137301.000			-42.862			-4.762
137400.000			-42.862			-4.762
137501.000			-42.861			-4.762
137600.000			-42.860			-4.762
137700.000			-42.859			-4.762
137801.000			-42.858			-4.762
137900.000			-42.857			-4.762
138000.000			-42.856			-4.762
138102.000			-42.855			-4.762
138201.000			-42.854			-4.762
138300.000			-42.854			-4.762
138401.000			-42.853			-4.761
138500.000			-42.852			-4.761
138600.000			-42.852			-4.761
138701.000			-42.852			-4.761
138800.000			-42.850			-4.761
138900.000			-42.849			-4.761
139002.000			-42.849			-4.761
139101.000			-42.849			-4.761
139201.000			-42.848			-4.761
139301.000			-42.846			-4.761
139400.000			-42.845			-4.761
139500.000			-42.844			-4.760
139601.000			-42.843			-4.760
139700.000			-42.842			-4.760
139800.000			-42.842			-4.760
139901.000			-42.841			-4.760
140001.000			-42.841			-4.760
140102.000			-42.840			-4.760
140200.000			-42.840			-4.760
140300.000			-42.838			-4.760
140401.000			-42.837			-4.760
140500.000			-42.837			-4.760
140600.000			-42.835			-4.759
140701.000			-42.834			-4.759
140800.000			-42.834			-4.759
140901.000			-42.833			-4.759
141002.000			-42.832			-4.759
141101.000			-42.832			-4.759
141200.000			-42.832			-4.759
141301.000			-42.831			-4.759
141400.000			-42.829			-4.759
141500.000			-42.828			-4.759
141601.000			-42.827			-4.759
141700.000			-42.827			-4.759
141801.000			-42.827			-4.759
141902.000			-42.827			-4.759
142001.000			-42.825			-4.758
142100.000			-42.823			-4.758
142201.000			-42.823			-4.758
142300.000			-42.823			-4.758
142400.000			-42.821			-4.758
142501.000			-42.820			-4.758
142600.000			-42.820			-4.758
142701.000			-42.820			-4.758
142802.000			-42.820			-4.758
142901.000			-42.817			-4.757
143000.000			-42.816			-4.757
143101.000			-42.816			-4.757
143200.000			-42.816			-4.757
143301.000			-42.814			-4.757
143400.000			-42.814			-4.757
143500.000			-42.814			-4.757
143601.000			-42.812			-4.757
143701.000			-42.811			-4.757
143801.000			-42.811			-4.757
143901.000			-42.810			-4.757
144000.000			-42.809			-4.757
144100.000			-42.809			-4.757
144201.000			-42.808			-4.756
144300.000			-42.805			-4.756
144400.000			-42.806			-4.756
144501.000			-42.806			-4.756
144601.000			-42.805			-4.756
144701.000			-42.804			-4.756
144801.000			-42.805			-4.756
144900.000			-42.803			-4.756
145000.000			-42.802			-4.756
145101.000			-42.800			-4.756
145200.000			-42.799			-4.755
145300.000			-42.799			-4.755
145401.000			-42.798			-4.755
145501.000			-42.797			-4.755
145601.000			-42.797			-4.755
145702.000			-42.796			-4.755
145800.000			-42.794			-4.755
145900.000			-42.793			-4.755
146001.000			-42.793			-4.755
146100.000			-42.793			-4.755
146200.000			-42.792			-4.755
146301.000			-42.791			-4.755
146400.000			-42.790			-4.754
146502.000			-42.788			-4.754
146601.000			-42.788			-4.754
146701.000			-42.788			-4.754
146801.000			-42.787			-4.754
146900.000			-42.785			-4.754
147000.000			-42.785			-4.754
147101.000			-42.784			-4.754
147200.000			-42.784			-4.754
147300.000			-42.782			-4.754
147401.000			-42.781			-4.753
147501.000			-42.781			-4.753
147601.000			-42.781			-4.753
147701.000			-42.780			-4.753
147800.000			-42.780			-4.753
147900.000			-42.779			-4.753
148001.000			-42.778			-4.753
148100.000			-42.777			-4.753
148200.000			-42.776			-4.753
148301.000			-42.775			-4.753
148401.000			-42.775			-4.753
148501.000			-42.774			-4.753
148602.000			-42.773			-4.753
148700.000			-42.774			-4.753
148800.000			-42.773			-4.753
148901.000			-42.772			-4.752
149000.000			-42.771			-4.752
149100.000			-42.769			-4.752
149201.000			-42.769			-4.752
149300.000			-42.769			-4.752
149401.000			-42.769			-4.752
149502.000			-42.767			-4.752
149601.000			-42.766			-4.752
149701.000			-42.765			-4.752
149800.000			-42.765			-4.752
149900.000			-42.765			-4.752
150001.000			-42.764			-4.752
150100.000			-42.763			-4.751
150200.000			-42.761			-4.751
150301.000			-42.760			-4.751
150401.000			-42.759			-4.751
150501.000			-42.759			-4.751
150602.000			-42.758			-4.751
150700.000			-42.758			-4.751
150800.000			-42.758			-4.751
150901.000			-42.756			-4.751
151000.000			-42.755			-4.751
151100.000			-42.755			-4.751
151201.000			-42.754			-4.750
151301.000			-42.754			-4.750
151401.000			-42.753			-4.750
151502.000			-42.752			-4.750
151600.000			-42.750			-4.750
151700.000			-42.749			-4.750
151801.000			-42.749			-4.750
151900.000			-42.748			-4.750
152000.000			-42.748			-4.750
152101.000			-42.749			-4.750
152200.000			-42.748			-4.750
152301.000			-42.747			-4.750
152402.000			-42.746			-4.750
152500.000			-42.744			-4.749
152600.000			-42.743			-4.749
152701.000			-42.742			-4.749
152800.000			-42.742			-4.749
152901.000			-42.742			-4.749
153000.000			-42.741			-4.749
153100.000			-42.741			-4.749
153202.000			-42.740			-4.749
153301.000			-42.739			-4.749
153401.000			-42.738			-4.749
153501.000			-42.738			-4.749
153600.000			-42.738			-4.749
153700.000			-42.736			-4.748
153801.000			-42.735			-4.748
153900.000			-42.734			-4.748
154000.000			-42.734			-4.748
154101.000			-42.733			-4.748
154201.000			-42.731			-4.748
154301.000			-42.731			-4.748
154401.000			-42.731			-4.748
154500.000			-42.729			-4.748
154600.000			-42.729			-4.748
154701.000			-42.728			-4.748
154800.000			-42.727			-4.747
154900.000			-42.726			-4.747
155001.000			-42.727			-4.747
155101.000			-42.726			-4.747
155201.000			-42.725			-4.747
155301.000			-42.724			-4.747
155400.000			-42.723			-4.747
155500.000			-42.723			-4.747
155601.000			-42.723			-4.747
155700.000			-42.721			-4.747
155800.000			-42.720			-4.747
155901.000			-42.719			-4.747
156001.000			-42.719			-4.747
156102.000			-42.718			-4.746
156201.000			-42.717			-4.746
156300.000			-42.717			-4.746
156401.000			-42.715			-4.746
156500.000			-42.715			-4.746
156600.000			-42.715			-4.746
156701.000			-42.714			-4.746
156800.000			-42.714			-4.746
156900.000			-42.712			-4.746
157002.000			-42.710			-4.746
157101.000			-42.709			-4.745
157200.000			-42.710			-4.746
157301.000			-42.710			-4.746
157400.000			-42.708			-4.745
157500.000			-42.708			-4.745
157601.000			-42.706			-4.745
157700.000			-42.706			-4.745
157800.000			-42.705			-4.745
157902.000			-42.704			-4.745
158001.000			-42.703			-4.745
158101.000			-42.703			-4.745
158201.000			-42.700			-4.744
158300.000			-42.700			-4.744
158400.000			-42.699			-4.744
158501.000			-42.698			-4.744
158600.000			-42.696			-4.744
158700.000			-42.697			-4.744
158801.000			-42.697			-4.744
158901.000			-42.694			-4.744
159001.000			-42.694			-4.744
159101.000			-42.693			-4.744
159200.000			-42.693			-4.744
159301.000			-42.693			-4.744
159400.000			-42.692			-4.744
159500.000			-42.691			-4.743
159601.000			-42.690			-4.743
159700.000			-42.690			-4.743
159801.000			-42.690			-4.743
159902.000			-42.689			-4.743
160001.000			-42.688			-4.743
160100.000			-42.688			-4.743
160201.000			-42.687			-4.743
160300.000			-42.684			-4.743
160400.000			-42.685			-4.743
160501.000			-42.683			-4.743
160600.000			-42.682			-4.742
160700.000			-42.682			-4.742
160802.000			-42.682			-4.742
160901.000			-42.681			-4.742
161001.000			-42.681			-4.742
161101.000			-42.679			-4.742
161200.000			-42.679			-4.742
161300.000			-42.678			-4.742
161401.000			-42.676			-4.742
161500.000			-42.676			-4.742
161600.000			-42.676			-4.742
161701.000			-42.675			-4.742
161801.000			-42.673			-4.741
161901.000			-42.673			-4.741
162001.000			-42.673			-4.741
162100.000			-42.672			-4.741
162200.000			-42.672			-4.741
162301.000			-42.671			-4.741
162400.000			-42.670			-4.741
162501.000			-42.668			-4.741
162600.000			-42.668			-4.741
162701.000			-42.668			-4.741
162802.000			-42.667			-4.741
162901.000			-42.667			-4.741
163000.000			-42.666			-4.741
163101.000			-42.666			-4.741
163200.000			-42.665			-4.741
163300.000			-42.664			-4.740
163401.000			-42.664			-4.740
163500.000			-42.663			-4.740
163600.000			-42.662			-4.740
163702.000			-42.662			-4.740
163801.000			-42.661			-4.740
163900.000			-42.661			-4.740
164001.000			-42.660			-4.740
164100.000			-42.660			-4.740
164200.000			-42.658			-4.740
164301.000			-42.658			-4.740
164400.000			-42.658			-4.740
164500.000			-42.656			-4.740
164602.000			-42.656			-4.740
164701.000			-42.654			-4.739
164801.000			-42.654			-4.739
164901.000			-42.653			-4.739
165000.000			-42.652			-4.739
165100.000			-42.652			-4.739
165201.000			-42.650			-4.739
165300.000			-42.650			-4.739
165400.000			-42.649			-4.739
165502.000			-42.649			-4.739
165601.000			-42.649			-4.739
165702.000			-42.648			-4.739
165800.000			-42.648			-4.739
165900.000			-42.648			-4.739
166001.000			-42.646			-4.738
166100.000			-42.645			-4.738
166200.000			-42.644			-4.738
166301.000			-42.644			-4.738
166400.000			-42.643			-4.738
166501.000			-42.641			-4.738
166602.000			-42.641			-4.738
166701.000			-42.641			-4.738
166800.000			-42.641			-4.738
166901.000			-42.639			-4.738
167000.000			-42.639			-4.738
167100.000			-42.638			-4.738
167201.000			-42.637			-4.737
167300.000			-42.635			-4.737
167400.000			-42.636			-4.737
167502.000			-42.636			-4.737
167601.000			-42.633			-4.737
167700.000			-42.633			-4.737
167801.000			-42.633			-4.737
167900.000			-42.633			-4.737
168000.000			-42.631			-4.737
168101.000			-42.630			-4.737
168200.000			-42.630			-4.737
168300.000			-42.629			-4.737
168402.000			-42.629			-4.737
168501.000			-42.628			-4.736
168601.000			-42.627			-4.736
168701.000			-42.627			-4.736
168800.000			-42.627			-4.736
168901.000			-42.625			-4.736
169000.000			-42.625			-4.736
169100.000			-42.624			-4.736
169201.000			-42.623			-4.736
169300.000			-42.623			-4.736
169401.000			-42.624			-4.736
169502.000			-42.622			-4.736
169600.000			-42.620			-4.736
169700.000			-42.620			-4.736
169801.000			-42.619			-4.735
169900.000			-42.619			-4.735
170000.000			-42.619			-4.735
170101.000			-42.619			-4.735
170200.000			-42.619			-4.735
170301.000			-42.618			-4.735
170402.000			-42.617			-4.735
170501.000			-42.618			-4.735
170600.000			-42.617			-4.735
170701.000			-42.615			-4.735
170800.000			-42.615			-4.735
170900.000			-42.614			-4.735
171001.000			-42.614			-4.735
171100.000			-42.613			-4.735
171201.000			-42.612			-4.735
171302.000			-42.612			-4.735
171401.000			-42.611			-4.735
171500.000			-42.610			-4.734
171601.000			-42.609			-4.734
171700.000			-42.609			-4.734
171800.000			-42.608			-4.734
171901.000			-42.607			-4.734
172000.000			-42.607			-4.734
172101.000			-42.606			-4.734
172201.000			-42.607			-4.734
172301.000			-42.606			-4.734
172401.000			-42.604			-4.734
172500.000			-42.604			-4.734
172600.000			-42.603			-4.734
172701.000			-42.602			-4.734
172800.000			-42.601			-4.733
172900.000			-42.601			-4.733
173001.000			-42.600			-4.733
173101.000			-42.600			-4.733
173201.000			-42.599			-4.733
173301.000			-42.598			-4.733
173400.000			-42.599			-4.733
173500.000			-42.597			-4.733
173601.000			-42.597			-4.733
173700.000			-42.598			-4.733
173800.000			-42.596			-4.733
173901.000			-42.594			-4.733
174001.000			-42.594			-4.733
174101.000			-42.594			-4.733
174202.000			-42.594			-4.733
174300.000			-42.593			-4.733
174400.000			-42.592			-4.732
174501.000			-42.591			-4.732
174600.000			-42.591			-4.732
174700.000			-42.591			-4.732
174801.000			-42.590			-4.732
174900.000			-42.589			-4.732
175001.000			-42.588			-4.732
175102.000			-42.588			-4.732
175201.000			-42.587			-4.732
175301.000			-42.587			-4.732
175400.000			-42.586			-4.732
175500.000			-42.586			-4.732
175601.000			-42.585			-4.732
175700.000			-42.585			-4.732
175800.000			-42.586			-4.732
175901.000			-42.585			-4.732
176001.000			-42.583			-4.731
176101.000			-42.583			-4.731
176201.000			-42.582			-4.731
176300.000			-42.581			-4.731
176400.000			-42.581			-4.731
176501.000			-42.580			-4.731
176600.000			-42.579			-4.731
176700.000			-42.578			-4.731
176801.000			-42.578			-4.731
176901.000			-42.577			-4.731
177001.000			-42.577			-4.731
177102.000			-42.577			-4.731
177200.000			-42.577			-4.731
177300.000			-42.577			-4.731
177401.000			-42.576			-4.731
177500.000			-42.574			-4.730
177600.000			-42.573			-4.730
177701.000			-42.572			-4.730
177800.000			-42.572			-4.730
177901.000			-42.571			-4.730
178002.000			-42.571			-4.730
178101.000			-42.571			-4.730
178200.000			-42.571			-4.730
178301.000			-42.570			-4.730
178400.000			-42.570			-4.730
178501.000			-42.568			-4.730
178600.000			-42.567			-4.730
178700.000			-42.567			-4.730
178801.000			-42.565			-4.729
178901.000			-42.565			-4.729
179001.000			-42.566			-4.730
179101.000			-42.565			-4.729
179200.000			-42.564			-4.729
179300.000			-42.564			-4.729
179401.000			-42.563			-4.729
179500.000			-42.563			-4.729
179600.000			-42.562			-4.729
179701.000			-42.561			-4.729
179801.000			-42.560			-4.729
179901.000			-42.559			-4.729
180002.000			-42.559			-4.729
180100.000			-42.559			-4.729
180200.000			-42.557			-4.729
180301.000			-42.556			-4.728
180400.000			-42.556			-4.728
180500.000			-42.556			-4.728
180601.000			-42.557			-4.729
180700.000			-42.554			-4.728
180801.000			-42.554			-4.728
180902.000			-42.553			-4.728
181000.000			-42.553			-4.728
181100.000			-42.553			-4.728
181201.000			-42.552			-4.728
181300.000			-42.550			-4.728
181400.000			-42.551			-4.728
181501.000			-42.550			-4.728
181600.000			-42.550			-4.728
181702.000			-42.549			-4.728
181801.000			-42.549			-4.728
181900.000			-42.548			-4.728
182001.000			-42.548			-4.728
182100.000			-42.546			-4.727
182200.000			-42.546			-4.727
182301.000			-42.545			-4.727
182400.000			-42.545			-4.727
182500.000			-42.545			-4.727
182602.000			-42.544			-4.727
182701.000			-42.542			-4.727
182801.000			-42.541			-4.727
182901.000			-42.541			-4.727
183000.000			-42.541			-4.727
183100.000			-42.540			-4.727
183201.000			-42.539			-4.727
183300.000			-42.539			-4.727
183400.000			-42.539			-4.727
183501.000			-42.537			-4.726
183601.000			-42.537			-4.726
183701.000			-42.536			-4.726
183801.000			-42.535			-4.726
183900.000			-42.535			-4.726
184000.000			-42.534			-4.726
184101.000			-42.533			-4.726
184200.000			-42.532			-4.726
184300.000			-42.534			-4.726
184401.000			-42.534			-4.726
184501.000			-42.531			-4.726
184601.000			-42.531			-4.726
184701.000			-42.531			-4.726
184800.000			-42.529			-4.725
184901.000			-42.528			-4.725
185000.000			-42.528			-4.725
185100.000			-42.528			-4.725
185201.000			-42.526			-4.725
185300.000			-42.525			-4.725
185401.000			-42.525			-4.725
185502.000			-42.524			-4.725
185601.000			-42.524			-4.725
185700.000			-42.524			-4.725
185801.000			-42.524			-4.725
185900.000			-42.523			-4.725
186000.000			-42.521			-4.725
186101.000			-42.521			-4.725
186200.000			-42.521			-4.725
186300.000			-42.521			-4.725
186402.000			-42.520			-4.724
186501.000			-42.520			-4.724
186600.000			-42.518			-4.724
186701.000			-42.518			-4.724
186800.000			-42.518			-4.724
186900.000			-42.517			-4.724
187001.000			-42.516			-4.724
187100.000			-42.515			-4.724
187200.000			-42.516			-4.724
187302.000			-42.515			-4.724
187401.000			-42.513			-4.724
187501.000			-42.512			-4.724
187601.000			-42.513			-4.724
187700.000			-42.513			-4.724
187800.000			-42.511			-4.723
187901.000			-42.510			-4.723
188000.000			-42.510			-4.723
188101.000			-42.510			-4.723
188201.000			-42.510			-4.723
188301.000			-42.508			-4.723
188402.000			-42.507			-4.723
188500.000			-42.507			-4.723
188600.000			-42.505			-4.723
188701.000			-42.505			-4.723
188800.000			-42.506			-4.723
188900.000			-42.505			-4.723
189001.000			-42.503			-4.723
189100.000			-42.503			-4.723
189201.000			-42.503			-4.723
189302.000			-42.502			-4.722
189400.000			-42.501			-4.722
189500.000			-42.501			-4.722
189601.000			-42.500			-4.722
189700.000			-42.500			-4.722
189800.000			-42.499			-4.722
189901.000			-42.499			-4.722
190000.000			-42.497			-4.722
190101.000			-42.498			-4.722
190202.000			-42.498			-4.722
190301.000			-42.497			-4.722
190400.000			-42.496			-4.722
190501.000			-42.495			-4.722
190600.000			-42.495			-4.722
190700.000			-42.495			-4.722
190801.000			-42.493			-4.721
190900.000			-42.492			-4.721
191000.000			-42.492			-4.721
191102.000			-42.491			-4.721
191201.000			-42.491			-4.721
191301.000			-42.491			-4.721
191400.000			-42.489			-4.721
191500.000			-42.489			-4.721
191601.000			-42.488			-4.721
191700.000			-42.488			-4.721
191800.000			-42.488			-4.721
191901.000			-42.488			-4.721
192001.000			-42.487			-4.721
192101.000			-42.485			-4.721
192202.000			-42.485			-4.721
192300.000			-42.484			-4.720
192400.000			-42.483			-4.720
192501.000			-42.483			-4.720
192600.000			-42.483			-4.720
192700.000			-42.482			-4.720
192801.000			-42.482			-4.720
192900.000			-42.481			-4.720
193001.000			-42.479			-4.720
193102.000			-42.479			-4.720
193201.000			-42.480			-4.720
193300.000			-42.480			-4.720
193401.000			-42.479			-4.720
193500.000			-42.477			-4.720
193600.000			-42.477			-4.720
193701.000			-42.476			-4.720
193800.000			-42.475			-4.719
193900.000			-42.474			-4.719
194002.000			-42.473			-4.719
194101.000			-42.473			-4.719
194201.000			-42.473			-4.719
194301.000			-42.472			-4.719
194400.000			-42.473			-4.719
194501.000			-42.472			-4.719
194600.000			-42.471			-4.719
194700.000			-42.470			-4.719
194801.000			-42.469			-4.719
194900.000			-42.469			-4.719
195001.000			-42.469			-4.719
195102.000			-42.468			-4.719
195201.000			-42.468			-4.719
195300.000			-42.468			-4.719
195401.000			-42.467			-4.719
195500.000			-42.465			-4.718
195600.000			-42.465			-4.718
195701.000			-42.465			-4.718
195800.000			-42.463			-4.718
195900.000			-42.463			-4.718
196002.000			-42.462			-4.718
196101.000			-42.462			-4.718
196200.000			-42.461			-4.718
196301.000			-42.461			-4.718
196400.000			-42.461			-4.718
196500.000			-42.460			-4.718
196601.000			-42.459			-4.718
196700.000			-42.459			-4.718
196800.000			-42.459			-4.718
196902.000			-42.458			-4.718
197001.000			-42.457			-4.717
197101.000			-42.456			-4.717
197201.000			-42.456			-4.717
197300.000			-42.456			-4.717
197400.000			-42.455			-4.717
197501.000			-42.453			-4.717
197600.000			-42.453			-4.717
197701.000			-42.453			-4.717
197800.000			-42.452			-4.717
197901.000			-42.453			-4.717
198002.000			-42.450			-4.717
198101.000			-42.450			-4.717
198200.000			-42.450			-4.717
198301.000			-42.449			-4.717
198400.000			-42.449			-4.717
198500.000			-42.448			-4.716
198601.000			-42.448			-4.716
198700.000			-42.448			-4.716
198800.000			-42.446			-4.716
198902.000			-42.446			-4.716
199001.000			-42.446			-4.716
199101.000			-42.445			-4.716
199201.000			-42.444			-4.716
199300.000			-42.443			-4.716
199400.000			-42.443			-4.716
199501.000			-42.444			-4.716
199600.000			-42.443			-4.716
199700.000			-42.442			-4.716
199801.000			-42.441			-4.716
199901.000			-42.441			-4.716
200001.000			-42.440			-4.716
200101.000			-42.440			-4.716
200200.000			-42.438			-4.715
200300.000			-42.438			-4.715
200401.000			-42.438			-4.715
200500.000			-42.436			-4.715
200600.000			-42.436			-4.715
200701.000			-42.437			-4.715
200801.000			-42.436			-4.715
200902.000			-42.435			-4.715
201000.000			-42.434			-4.715
201100.000			-42.434			-4.715
201201.000			-42.433			-4.715
201300.000			-42.434			-4.715
201400.000			-42.434			-4.715
201501.000			-42.433			-4.715
201600.000			-42.431			-4.715
201701.000			-42.431			-4.715
201802.000			-42.430			-4.714
201900.000			-42.430			-4.714
202000.000			-42.429			-4.714
202101.000			-42.428			-4.714
202200.000			-42.428			-4.714
202300.000			-42.427			-4.714
202401.000			-42.426			-4.714
202500.000			-42.426			-4.714
202601.000			-42.427			-4.714
202702.000			-42.426			-4.714
202800.000			-42.425			-4.714
202900.000			-42.424			-4.714
203001.000			-42.422			-4.714
203100.000			-42.421			-4.713
203200.000			-42.421			-4.713
203301.000			-42.421			-4.713
203400.000			-42.422			-4.714
203501.000			-42.420			-4.713
203602.000			-42.420			-4.713
203700.000			-42.420			-4.713
203800.000			-42.419			-4.713
203901.000			-42.418			-4.713
204000.000			-42.418			-4.713
204101.000			-42.417			-4.713
204200.000			-42.417			-4.713
204300.000			-42.416			-4.713
204402.000			-42.415			-4.713
204501.000			-42.413			-4.713
204600.000			-42.414			-4.713
204701.000			-42.414			-4.713
204800.000			-42.413			-4.713
204900.000			-42.414			-4.713
205001.000			-42.413			-4.713
205100.000			-42.412			-4.712
205200.000			-42.411			-4.712
205302.000			-42.411			-4.712
205401.000			-42.410			-4.712
205500.000			-42.409			-4.712
205601.000			-42.408			-4.712
205700.000			-42.407			-4.712
205800.000			-42.408			-4.712
205901.000			-42.409			-4.712
206000.000			-42.406			-4.712
206100.000			-42.406			-4.712
206202.000			-42.406			-4.712
206301.000			-42.405			-4.712
206400.000			-42.406			-4.712
206501.000			-42.405			-4.712
206600.000			-42.404			-4.712
206700.000			-42.403			-4.711
206801.000			-42.402			-4.711
206900.000			-42.402			-4.711
207000.000			-42.402			-4.711
207102.000			-42.402			-4.711
207201.000			-42.403			-4.711
207301.000			-42.401			-4.711
207400.000			-42.400			-4.711
207500.000			-42.398			-4.711
207601.000			-42.398			-4.711
207700.000			-42.398			-4.711
207800.000			-42.398			-4.711
207901.000			-42.397			-4.711
208001.000			-42.397			-4.711
208101.000			-42.396			-4.711
208201.000			-42.394			-4.710
208300.000			-42.395			-4.711
208400.000			-42.394			-4.710
208501.000			-42.392			-4.710
208600.000			-42.392			-4.710
208700.000			-42.392			-4.710
208801.000			-42.391			-4.710
208901.000			-42.391			-4.710
209001.000			-42.391			-4.710
209102.000			-42.391			-4.710
209200.000			-42.390			-4.710
209300.000			-42.390			-4.710
209401.000			-42.389			-4.710
209500.000			-42.388			-4.710
209600.000			-42.386			-4.710
209701.000			-42.387			-4.710
209800.000			-42.386			-4.710
209901.000			-42.386			-4.710
210002.000			-42.386			-4.710
210100.000			-42.385			-4.709
210200.000			-42.385			-4.709
210301.000			-42.384			-4.709
210400.000			-42.383			-4.709
210501.000			-42.382			-4.709
210600.000			-42.382			-4.709
210700.000			-42.381			-4.709
210802.000			-42.381			-4.709
210901.000			-42.380			-4.709
211001.000			-42.380			-4.709
211101.000			-42.379			-4.709
211200.000			-42.379			-4.709
211300.000			-42.378			-4.709
211401.000			-42.377			-4.709
211500.000			-42.376			-4.708
211600.000			-42.376			-4.708
211702.000			-42.376			-4.708
211801.000			-42.375			-4.708
211901.000			-42.375			-4.708
212001.000			-42.374			-4.708
212100.000			-42.373			-4.708
212200.000			-42.373			-4.708
212301.000			-42.374			-4.708
212400.000			-42.374			-4.708
212500.000			-42.373			-4.708
212602.000			-42.372			-4.708
212701.000			-42.372			-4.708
212801.000			-42.370			-4.708
212901.000			-42.369			-4.708
213000.000			-42.369			-4.708
213100.000			-42.369			-4.708
213201.000			-42.368			-4.708
213300.000			-42.368			-4.708
213400.000			-42.368			-4.708
213502.000			-42.367			-4.707
213601.000			-42.366			-4.707
213702.000			-42.366			-4.707
213800.000			-42.365			-4.707
213900.000			-42.365			-4.707
214001.000			-42.364			-4.707
214100.000			-42.364			-4.707
214200.000			-42.364			-4.707
214301.000			-42.362			-4.707
214400.000			-42.361			-4.707
214501.000			-42.361			-4.707
214602.000			-42.360			-4.707
214700.000			-42.360			-4.707
214800.000			-42.360			-4.707
214901.000			-42.358			-4.706
215000.000			-42.358			-4.706
215100.000			-42.358			-4.706
215201.000			-42.356			-4.706
215300.000			-42.355			-4.706
215401.000			-42.356			-4.706
215502.000			-42.356			-4.706
215600.000			-42.355			-4.706
215700.000			-42.354			-4.706
215801.000			-42.354			-4.706
215900.000			-42.354			-4.706
216000.000			-42.354			-4.706
216101.000			-42.353			-4.706
216200.000			-42.352			-4.706
216301.000			-42.352			-4.706
216402.000			-42.352			-4.706
216501.000			-42.351			-4.706
216600.000			-42.351			-4.706
216701.000			-42.350			-4.706
216800.000			-42.349			-4.705
216901.000			-42.349			-4.705
217000.000			-42.349			-4.705
217100.000			-42.348			-4.705
217202.000			-42.348			-4.705
217301.000			-42.347			-4.705
217401.000			-42.346			-4.705
217501.000			-42.345			-4.705
217600.000			-42.346			-4.705
217700.000			-42.345			-4.705
217801.000			-42.344			-4.705
217900.000			-42.343			-4.705
218000.000			-42.344			-4.705
218102.000			-42.342			-4.705
218201.000			-42.342			-4.705
218301.000			-42.341			-4.705
218401.000			-42.342			-4.705
218500.000			-42.341			-4.705
218600.000			-42.341			-4.705
218701.000			-42.340			-4.704
218800.000			-42.339			-4.704
218900.000			-42.339			-4.704
219001.000			-42.338			-4.704
219101.000			-42.337			-4.704
219201.000			-42.337			-4.704
219301.000			-42.336			-4.704
219400.000			-42.336			-4.704
219500.000			-42.334			-4.704
219601.000			-42.335			-4.704
219700.000			-42.335			-4.704
219800.000			-42.333			-4.704
219901.000			-42.332			-4.704
220001.000			-42.334			-4.704
220102.000			-42.332			-4.704
220200.000			-42.331			-4.703
220300.000			-42.332			-4.704
220401.000			-42.331			-4.703
220500.000			-42.330			-4.703
220600.000			-42.330			-4.703
220701.000			-42.329			-4.703
220800.000			-42.329			-4.703
220901.000			-42.329			-4.703
221002.000			-42.328			-4.703
221100.000			-42.327			-4.703
221200.000			-42.326			-4.703
221301.000			-42.326			-4.703
221400.000			-42.325			-4.703
221500.000			-42.325			-4.703
221601.000			-42.324			-4.703
221700.000			-42.323			-4.703
221801.000			-42.323			-4.703
221902.000			-42.323			-4.703
222000.000			-42.322			-4.702
222100.000			-42.321			-4.702
222201.000			-42.321			-4.702
222300.000			-42.320			-4.702
222400.000			-42.319			-4.702
222501.000			-42.319			-4.702
222601.000			-42.319			-4.702
222701.000			-42.318			-4.702
222802.000			-42.318			-4.702
222900.000			-42.317			-4.702
223000.000			-42.316			-4.702
223101.000			-42.316			-4.702
223200.000			-42.316			-4.702
223301.000			-42.315			-4.702
223400.000			-42.315			-4.702
223500.000			-42.315			-4.702
223602.000			-42.313			-4.701
223701.000			-42.312			-4.701
223800.000			-42.313			-4.701
223901.000			-42.312			-4.701
224000.000			-42.311			-4.701
224100.000			-42.310			-4.701
224201.000			-42.310			-4.701
224300.000			-42.310			-4.701
224401.000			-42.309			-4.701
224502.000			-42.308			-4.701
224601.000			-42.308			-4.701
224700.000			-42.309			-4.701
224801.000			-42.308			-4.701
224900.000			-42.306			-4.701
225000.000			-42.305			-4.701
225101.000			-42.305			-4.701
225200.000			-42.306			-4.701
225301.000			-42.305			-4.701
225402.000			-42.304			-4.700
225501.000			-42.304			-4.700
225600.000			-42.302			-4.700
225701.000			-42.302			-4.700
225800.000			-42.302			-4.700
225900.000			-42.301			-4.700
226001.000			-42.301			-4.700
226100.000			-42.301			-4.700
226201.000			-42.299			-4.700
226302.000			-42.299			-4.700
226401.000			-42.299			-4.700
226501.000			-42.298			-4.700
226600.000			-42.298			-4.700
226700.000			-42.298			-4.700
226801.000			-42.298			-4.700
226900.000			-42.297			-4.700
227000.000			-42.297			-4.700
227101.000			-42.295			-4.699
227201.000			-42.295			-4.699
227301.000			-42.293			-4.699
227401.000			-42.293			-4.699
227500.000			-42.295			-4.699
227600.000			-42.294			-4.699
227701.000			-42.293			-4.699
227800.000			-42.292			-4.699
227900.000			-42.292			-4.699
228001.000			-42.292			-4.699
228101.000			-42.292			-4.699
228201.000			-42.291			-4.699
228302.000			-42.290			-4.699
228400.000			-42.289			-4.699
228500.000			-42.287			-4.699
228601.000			-42.288			-4.699
228700.000			-42.287			-4.699
228800.000			-42.287			-4.699
228901.000			-42.287			-4.699
229000.000			-42.286			-4.698
229101.000			-42.284			-4.698
229202.000			-42.285			-4.698
229300.000			-42.284			-4.698
229400.000			-42.284			-4.698
229501.000			-42.283			-4.698
229600.000			-42.282			-4.698
229701.000			-42.281			-4.698
229800.000			-42.281			-4.698
229900.000			-42.282			-4.698
230002.000			-42.281			-4.698
230101.000			-42.280			-4.698
230201.000			-42.280			-4.698
230301.000			-42.278			-4.698
230400.000			-42.278			-4.698
230500.000			-42.279			-4.698
230601.000			-42.279			-4.698
230700.000			-42.277			-4.697
230800.000			-42.278			-4.698
230902.000			-42.277			-4.697
231001.000			-42.277			-4.697
231101.000			-42.276			-4.697
231201.000			-42.275			-4.697
231300.000			-42.275			-4.697
231400.000			-42.274			-4.697
231501.000			-42.274			-4.697
231600.000			-42.273			-4.697
231700.000			-42.272			-4.697
231802.000			-42.272			-4.697
231901.000			-42.272			-4.697
232001.000			-42.272			-4.697
232101.000			-42.271			-4.697
232200.000			-42.271			-4.697
232300.000			-42.269			-4.697
232401.000			-42.269			-4.697
232500.000			-42.269			-4.697
232600.000			-42.269			-4.697
232702.000			-42.269			-4.697
232801.000			-42.268			-4.696
232902.000			-42.267			-4.696
233000.000			-42.267			-4.696
233100.000			-42.266			-4.696
233201.000			-42.266			-4.696
233300.000			-42.266			-4.696
233400.000			-42.266			-4.696
233501.000			-42.266			-4.696
233601.000			-42.264			-4.696
233701.000			-42.264			-4.696
233802.000			-42.263			-4.696
233900.000			-42.263			-4.696
234000.000			-42.263			-4.696
234101.000			-42.263			-4.696
234200.000			-42.263			-4.696
234300.000			-42.261			-4.696
234401.000			-42.261			-4.696
234500.000			-42.261			-4.696
234601.000			-42.260			-4.696
234702.000			-42.259			-4.695
234800.000			-42.259			-4.695
234900.000			-42.258			-4.695
235001.000			-42.258			-4.695
235100.000			-42.258			-4.695
235200.000			-42.257			-4.695
235301.000			-42.256			-4.695
235400.000			-42.256			-4.695
235501.000			-42.256			-4.695
235602.000			-42.255			-4.695
235700.000			-42.255			-4.695
235800.000			-42.256			-4.695
235901.000			-42.255			-4.695
236000.000			-42.254			-4.695
236101.000			-42.253			-4.695
236200.000			-42.253			-4.695
236300.000			-42.252			-4.695
236402.000			-42.251			-4.695
236501.000			-42.251			-4.695
236601.000			-42.249			-4.694
236701.000			-42.250			-4.694
236800.000			-42.251			-4.695
236900.000			-42.250			-4.694
237001.000			-42.249			-4.694
237100.000			-42.249			-4.694
237200.000			-42.249			-4.694
237302.000			-42.248			-4.694
237401.000			-42.248			-4.694
237501.000			-42.247			-4.694
237601.000			-42.246			-4.694
237700.000			-42.246			-4.694
237800.000			-42.245			-4.694
237901.000			-42.244			-4.694
238000.000			-42.243			-4.694
238100.000			-42.243			-4.694
238201.000			-42.243			-4.694
238301.000			-42.244			-4.694
238401.000			-42.243			-4.694
238501.000			-42.243			-4.694
238600.000			-42.243			-4.694
238700.000			-42.241			-4.693
238801.000			-42.241			-4.693
238900.000			-42.240			-4.693
239000.000			-42.240			-4.693
239101.000			-42.240			-4.693
239201.000			-42.240			-4.693
239302.000			-42.239			-4.693
239401.000			-42.238			-4.693
239500.000			-42.238			-4.693
239601.000			-42.237			-4.693
239700.000			-42.237			-4.693
239800.000			-42.236			-4.693
239901.000			-42.236			-4.693
240000.000			-42.236			-4.693
240101.000			-42.235			-4.693
240202.000			-42.234			-4.693
240301.000			-42.234			-4.693
240400.000			-42.234			-4.693
240501.000			-42.234			-4.693
240600.000			-42.233			-4.693
240700.000			-42.232			-4.692
240801.000			-42.232			-4.692
240900.000			-42.231			-4.692
241001.000			-42.231			-4.692
241102.000			-42.231			-4.692
241201.000			-42.231			-4.692
241300.000			-42.230			-4.692
241401.000			-42.230			-4.692
241500.000			-42.229			-4.692
241600.000			-42.227			-4.692
241701.000			-42.227			-4.692
241800.000			-42.227			-4.692
241901.000			-42.227			-4.692
242002.000			-42.226			-4.692
242101.000			-42.225			-4.692
242200.000			-42.224			-4.692
242301.000			-42.225			-4.692
242400.000			-42.224			-4.692
242501.000			-42.223			-4.691
242600.000			-42.222			-4.691
242700.000			-42.222			-4.691
242802.000			-42.223			-4.691
242901.000			-42.222			-4.691
243001.000			-42.221			-4.691
243101.000			-42.220			-4.691
243200.000			-42.219			-4.691
243300.000			-42.219			-4.691
243401.000			-42.219			-4.691
243500.000			-42.219			-4.691
243600.000			-42.218			-4.691
243702.000			-42.218			-4.691
243801.000			-42.217			-4.691
243901.000			-42.217			-4.691
244001.000			-42.216			-4.691
244100.000			-42.215			-4.691
244200.000			-42.215			-4.691
244301.000			-42.215			-4.691
244400.000			-42.215			-4.691
244500.000			-42.213			-4.690
244602.000			-42.213			-4.690
244701.000			-42.213			-4.690
244800.000			-42.214			-4.690
244901.000			-42.213			-4.690
245000.000			-42.212			-4.690
245100.000			-42.212			-4.690
245201.000			-42.211			-4.690
245300.000			-42.210			-4.690
245400.000			-42.210			-4.690
245502.000			-42.210			-4.690
245601.000			-42.210			-4.690
245701.000			-42.209			-4.690
245800.000			-42.209			-4.690
245900.000			-42.207			-4.690
246001.000			-42.207			-4.690
246100.000			-42.207			-4.690
246200.000			-42.206			-4.690
246301.000			-42.207			-4.690
246401.000			-42.206			-4.690
246501.000			-42.205			-4.689
246601.000			-42.204			-4.689
246700.000			-42.203			-4.689
246800.000			-42.203			-4.689
246901.000			-42.203			-4.689
247000.000			-42.203			-4.689
247100.000			-42.203			-4.689
247201.000			-42.202			-4.689
247301.000			-42.202			-4.689
247401.000			-42.201			-4.689
247501.000			-42.201			-4.689
247600.000			-42.200			-4.689
247700.000			-42.200			-4.689
247801.000			-42.199			-4.689
247900.000			-42.199			-4.689
248000.000			-42.198			-4.689
248101.000			-42.197			-4.689
248201.000			-42.197			-4.689
248301.000			-42.196			-4.688
248402.000			-42.196			-4.688
248500.000			-42.197			-4.689
248600.000			-42.196			-4.688
248701.000			-42.194			-4.688
248800.000			-42.194			-4.688
248901.000			-42.194			-4.688
249000.000			-42.193			-4.688
249100.000			-42.193			-4.688
249202.000			-42.192			-4.688
249301.000			-42.192			-4.688
249401.000			-42.192			-4.688
249501.000			-42.191			-4.688
249600.000			-42.191			-4.688
249700.000			-42.190			-4.688
249801.000			-42.190			-4.688
249900.000			-42.190			-4.688
250000.000			-42.190			-4.688
250101.000			-42.190			-4.688
250201.000			-42.188			-4.688
250301.000			-42.188			-4.688
250401.000			-42.188			-4.688
250500.000			-42.186			-4.687
250600.000			-42.187			-4.687
250701.000			-42.186			-4.687
250800.000			-42.185			-4.687
250900.000			-42.185			-4.687
251001.000			-42.184			-4.687
251101.000			-42.184			-4.687
251201.000			-42.183			-4.687
251301.000			-42.183			-4.687
251400.000			-42.182			-4.687
251500.000			-42.182			-4.687
251601.000			-42.181			-4.687
251700.000			-42.182			-4.687
251800.000			-42.182			-4.687
251901.000			-42.181			-4.687
252001.000			-42.181			-4.687
252102.000			-42.181			-4.687
252200.000			-42.180			-4.687
252300.000			-42.178			-4.686
252401.000			-42.179			-4.687
252500.000			-42.179			-4.687
252600.000			-42.179			-4.687
252701.000			-42.178			-4.686
252800.000			-42.176			-4.686
252901.000			-42.176			-4.686
253002.000			-42.177			-4.686
253101.000			-42.177			-4.686
253200.000			-42.175			-4.686
253301.000			-42.175			-4.686
253400.000			-42.174			-4.686
253500.000			-42.174			-4.686
253601.000			-42.173			-4.686
253700.000			-42.172			-4.686
253801.000			-42.172			-4.686
253902.000			-42.173			-4.686
254001.000			-42.173			-4.686
254100.000			-42.171			-4.686
254201.000			-42.169			-4.685
254300.000			-42.169			-4.685
254400.000			-42.170			-4.686
254501.000			-42.170			-4.686
254600.000			-42.168			-4.685
254700.000			-42.169			-4.685
254802.000			-42.170			-4.686
254901.000			-42.169			-4.685
255000.000			-42.168			-4.685
255101.000			-42.167			-4.685
255200.000			-42.166			-4.685
255301.000			-42.166			-4.685
255400.000			-42.166			-4.685
255500.000			-42.166			-4.685
255601.000			-42.165			-4.685
255701.000			-42.164			-4.685
255801.000			-42.164			-4.685
255902.000			-42.163			-4.685
256000.000			-42.163			-4.685
256100.000			-42.163			-4.685
256201.000			-42.162			-4.685
256300.000			-42.162			-4.685
256400.000			-42.161			-4.685
256501.000			-42.161			-4.685
256600.000			-42.161			-4.685
256701.000			-42.161			-4.685
256802.000			-42.160			-4.684
256900.000			-42.160			-4.684
257000.000			-42.159			-4.684
257101.000			-42.158			-4.684
257200.000			-42.158			-4.684
257300.000			-42.158			-4.684
257401.000			-42.156			-4.684
257500.000			-42.156			-4.684
257601.000			-42.155			-4.684
257702.000			-42.155			-4.684
257801.000			-42.155			-4.684
257900.000			-42.155			-4.684
258001.000			-42.154			-4.684
258100.000			-42.153			-4.684
258200.000			-42.154			-4.684
258301.000			-42.154			-4.684
258400.000			-42.154			-4.684
258501.000			-42.153			-4.684
258601.000			-42.152			-4.684
258701.000			-42.152			-4.684
258801.000			-42.153			-4.684
258900.000			-42.152			-4.684
259000.000			-42.150			-4.683
259101.000			-42.149			-4.683
259200.000			-42.149			-4.683
259300.000			-42.148			-4.683
259401.000			-42.149			-4.683
259501.000			-42.148			-4.683
259601.000			-42.147			-4.683
259702.000			-42.147			-4.683
259800.000			-42.147			-4.683
259900.000			-42.147			-4.683
260001.000			-42.146			-4.683
260100.000			-42.145			-4.683
260200.000			-42.145			-4.683
260301.000			-42.145			-4.683
260401.000			-42.143			-4.683
260501.000			-42.143			-4.683
260602.000			-42.143			-4.683
260700.000			-42.143			-4.683
260800.000			-42.142			-4.682
260901.000			-42.142			-4.682
261000.000			-42.142			-4.682
261100.000			-42.140			-4.682
261201.000			-42.140			-4.682
261301.000			-42.140			-4.682
261401.000			-42.140			-4.682
261502.000			-42.139			-4.682
261600.000			-42.139			-4.682
261701.000			-42.139			-4.682
261800.000			-42.138			-4.682
261900.000			-42.137			-4.682
262001.000			-42.137			-4.682
262100.000			-42.137			-4.682
262200.000			-42.137			-4.682
262302.000			-42.137			-4.682
262401.000			-42.135			-4.682
262500.000			-42.134			-4.682
262601.000			-42.135			-4.682
262700.000			-42.134			-4.682
262800.000			-42.134			-4.682
262901.000			-42.133			-4.681
263000.000			-42.133			-4.681
263100.000			-42.133			-4.681
263202.000			-42.133			-4.681
263301.000			-42.131			-4.681
263400.000			-42.130			-4.681
263501.000			-42.129			-4.681
263600.000			-42.130			-4.681
263700.000			-42.130			-4.681
263801.000			-42.130			-4.681
263900.000			-42.129			-4.681
264000.000			-42.128			-4.681
264102.000			-42.128			-4.681
264201.000			-42.129			-4.681
264300.000			-42.128			-4.681
264401.000			-42.127			-4.681
264500.000			-42.127			-4.681
264600.000			-42.127			-4.681
264701.000			-42.125			-4.681
264800.000			-42.126			-4.681
264901.000			-42.125			-4.681
265001.000			-42.124			-4.680
265101.000			-42.124			-4.680
265202.000			-42.123			-4.680
265300.000			-42.123			-4.680
265400.000			-42.123			-4.680
265501.000			-42.122			-4.680
265600.000			-42.122			-4.680
265700.000			-42.121			-4.680
265801.000			-42.121			-4.680
265901.000			-42.121			-4.680
266001.000			-42.121			-4.680
266102.000			-42.121			-4.680
266200.000			-42.119			-4.680
266300.000			-42.119			-4.680
266401.000			-42.118			-4.680
266500.000			-42.117			-4.680
266600.000			-42.118			-4.680
266701.000			-42.117			-4.680
266801.000			-42.116			-4.680
266901.000			-42.115			-4.679
267002.000			-42.115			-4.679
267100.000			-42.115			-4.679
267200.000			-42.116			-4.680
267301.000			-42.115			-4.679
267400.000			-42.114			-4.679
267500.000			-42.114			-4.679
267601.000			-42.113			-4.679
267701.000			-42.113			-4.679
267801.000			-42.113			-4.679
267902.000			-42.112			-4.679
268000.000			-42.111			-4.679
268101.000			-42.112			-4.679
268200.000			-42.112			-4.679
268300.000			-42.110			-4.679
268401.000			-42.109			-4.679
268500.000			-42.109			-4.679
268601.000			-42.108			-4.679
268702.000			-42.108			-4.679
268801.000			-42.109			-4.679
268900.000			-42.108			-4.679
269001.000			-42.108			-4.679
269100.000			-42.106			-4.678
269200.000			-42.107			-4.679
269301.000			-42.106			-4.678
269400.000			-42.106			-4.678
269500.000			-42.106			-4.678
269602.000			-42.105			-4.678
269701.000			-42.104			-4.678
269800.000			-42.103			-4.678
269901.000			-42.103			-4.678
270000.000			-42.103			-4.678
270100.000			-42.102			-4.678
270201.000			-42.102			-4.678
270300.000			-42.102			-4.678
270400.000			-42.102			-4.678
270502.000			-42.100			-4.678
270601.000			-42.100			-4.678
270700.000			-42.100			-4.678
270801.000			-42.099			-4.678
270900.000			-42.099			-4.678
271000.000			-42.099			-4.678
271101.000			-42.099			-4.678
271200.000			-42.099			-4.678
271301.000			-42.097			-4.677
271401.000			-42.097			-4.677
271501.000			-42.096			-4.677
271601.000			-42.096			-4.677
271700.000			-42.095			-4.677
271800.000			-42.095			-4.677
271901.000			-42.095			-4.677
272000.000			-42.093			-4.677
272100.000			-42.093			-4.677
272201.000			-42.094			-4.677
272301.000			-42.093			-4.677
272401.000			-42.093			-4.677
272502.000			-42.092			-4.677
272600.000			-42.092			-4.677
272700.000			-42.091			-4.677
272801.000			-42.091			-4.677
272900.000			-42.090			-4.677
273000.000			-42.089			-4.677
273101.000			-42.089			-4.677
273200.000			-42.090			-4.677
273301.000			-42.088			-4.676
273402.000			-42.088			-4.676
273500.000			-42.088			-4.676
273600.000			-42.087			-4.676
273701.000			-42.086			-4.676
273800.000			-42.085			-4.676
273900.000			-42.085			-4.676
274001.000			-42.085			-4.676
274100.000			-42.085			-4.676
274201.000			-42.084			-4.676
274302.000			-42.083			-4.676
274401.000			-42.084			-4.676
274501.000			-42.083			-4.676
274600.000			-42.083			-4.676
274700.000			-42.081			-4.676
274801.000			-42.081			-4.676
274900.000			-42.082			-4.676
275000.000			-42.082			-4.676
275102.000			-42.081			-4.676
275201.000			-42.080			-4.676
275301.000			-42.079			-4.675
275401.000			-42.079			-4.675
275500.000			-42.079			-4.675
275600.000			-42.078			-4.675
275701.000			-42.077			-4.675
275800.000			-42.078			-4.675
275900.000			-42.078			-4.675
276001.000			-42.078			-4.675
276101.000			-42.078			-4.675
276201.000			-42.077			-4.675
276301.000			-42.076			-4.675
276400.000			-42.075			-4.675
276500.000			-42.075			-4.675
276601.000			-42.074			-4.675
276700.000			-42.074			-4.675
276800.000			-42.074			-4.675
276901.000			-42.075			-4.675
277001.000			-42.074			-4.675
277101.000			-42.072			-4.675
277201.000			-42.072			-4.675
277300.000			-42.072			-4.675
277400.000			-42.072			-4.675
277501.000			-42.072			-4.675
277600.000			-42.071			-4.675
277701.000			-42.070			-4.674
277800.000			-42.069			-4.674
277900.000			-42.070			-4.674
278002.000			-42.070			-4.674
278101.000			-42.069			-4.674
278200.000			-42.069			-4.674
278301.000			-42.069			-4.674
278400.000			-42.068			-4.674
278500.000			-42.067			-4.674
278601.000			-42.067			-4.674
278700.000			-42.067			-4.674
278800.000			-42.066			-4.674
278902.000			-42.066			-4.674
279001.000			-42.065			-4.674
279100.000			-42.065			-4.674
279201.000			-42.064			-4.674
279300.000			-42.065			-4.674
279400.000			-42.065			-4.674
279501.000			-42.063			-4.674
279600.000			-42.064			-4.674
279700.000			-42.063			-4.674
279802.000			-42.062			-4.674
279901.000			-42.062			-4.674
280001.000			-42.061			-4.673
280101.000			-42.061			-4.673
280200.000			-42.061			-4.673
280300.000			-42.061			-4.673
280401.000			-42.060			-4.673
280500.000			-42.059			-4.673
280600.000			-42.059			-4.673
280702.000			-42.058			-4.673
280801.000			-42.057			-4.673
280902.000			-42.057			-4.673
281000.000			-42.058			-4.673
281100.000			-42.058			-4.673
281201.000			-42.057			-4.673
281300.000			-42.057			-4.673
281400.000			-42.057			-4.673
281501.000			-42.057			-4.673
281600.000			-42.056			-4.673
281701.000			-42.055			-4.673
281802.000			-42.055			-4.673
281900.000			-42.054			-4.673
282000.000			-42.055			-4.673
282101.000			-42.055			-4.673
282200.000			-42.054			-4.673
282300.000			-42.053			-4.673
282401.000			-42.053			-4.673
282501.000			-42.052			-4.672
282601.000			-42.051			-4.672
282702.000			-42.052			-4.672
282800.000			-42.051			-4.672
282900.000			-42.050			-4.672
283001.000			-42.050			-4.672
283100.000			-42.049			-4.672
283200.000			-42.048			-4.672
283301.000			-42.050			-4.672
283400.000			-42.049			-4.672
283501.000			-42.048			-4.672
283602.000			-42.047			-4.672
283700.000			-42.047			-4.672
283800.000			-42.047			-4.672
283901.000			-42.047			-4.672
284000.000			-42.047			-4.672
284101.000			-42.046			-4.672
284200.000			-42.046			-4.672
284300.000			-42.045			-4.672
284402.000			-42.045			-4.672
284501.000			-42.045			-4.672
284600.000			-42.044			-4.672
284701.000			-42.044			-4.672
284800.000			-42.045			-4.672
284900.000			-42.044			-4.672
285001.000			-42.043			-4.671
285100.000			-42.042			-4.671
285200.000			-42.042			-4.671
285302.000			-42.040			-4.671
285401.000			-42.040			-4.671
285500.000			-42.041			-4.671
285601.000			-42.040			-4.671
285700.000			-42.040			-4.671
285800.000			-42.039			-4.671
285901.000			-42.038			-4.671
286000.000			-42.038			-4.671
286100.000			-42.038			-4.671
286202.000			-42.037			-4.671
286301.000			-42.037			-4.671
286401.000			-42.037			-4.671
286501.000			-42.037			-4.671
286600.000			-42.037			-4.671
286700.000			-42.036			-4.671
286801.000			-42.036			-4.671
286900.000			-42.034			-4.670
287000.000			-42.034			-4.670
287101.000			-42.034			-4.670
287201.000			-42.033			-4.670
287302.000			-42.033			-4.670
287400.000			-42.033			-4.670
287500.000			-42.033			-4.670
287601.000			-42.032			-4.670
287700.000			-42.031			-4.670
287800.000			-42.031			-4.670
287901.000			-42.031			-4.670
288000.000			-42.032			-4.670
288101.000			-42.031			-4.670
288202.000			-42.030			-4.670
288300.000			-42.029			-4.670
288400.000			-42.029			-4.670
288501.000			-42.028			-4.670
288600.000			-42.027			-4.670
288700.000			-42.027			-4.670
288801.000			-42.027			-4.670
288900.000			-42.027			-4.670
289001.000			-42.026			-4.670
289102.000			-42.027			-4.670
289201.000			-42.027			-4.670
289300.000			-42.026			-4.670
289401.000			-42.026			-4.670
289500.000			-42.025			-4.669
289600.000			-42.024			-4.669
289701.000			-42.024			-4.669
289800.000			-42.024			-4.669
289900.000			-42.022			-4.669
290002.000			-42.022			-4.669
290101.000			-42.021			-4.669
290200.000			-42.021			-4.669
290301.000			-42.022			-4.669
290400.000			-42.021			-4.669
290501.000			-42.021			-4.669
290600.000			-42.021			-4.669
290700.000			-42.020			-4.669
290802.000			-42.019			-4.669
290901.000			-42.019			-4.669
291001.000			-42.018			-4.669
291101.000			-42.017			-4.669
291200.000			-42.018			-4.669
291300.000			-42.019			-4.669
291401.000			-42.019			-4.669
291500.000			-42.018			-4.669
291600.000			-42.018			-4.669
291702.000			-42.018			-4.669
291801.000			-42.017			-4.669
291901.000			-42.016			-4.668
292001.000			-42.015			-4.668
292100.000			-42.015			-4.668
292200.000			-42.015			-4.668
292301.000			-42.014			-4.668
292400.000			-42.013			-4.668
292500.000			-42.013			-4.668
292602.000			-42.012			-4.668
292701.000			-42.012			-4.668
292801.000			-42.012			-4.668
292901.000			-42.011			-4.668
293000.000			-42.012			-4.668
293100.000			-42.011			-4.668
293201.000			-42.010			-4.668
293300.000			-42.010			-4.668
293400.000			-42.010			-4.668
293502.000			-42.010			-4.668
293601.000			-42.010			-4.668
293702.000			-42.009			-4.668
293800.000			-42.007			-4.667
293900.000			-42.007			-4.667
294001.000			-42.007			-4.667
294100.000			-42.008			-4.668
294200.000			-42.006			-4.667
294301.000			-42.006			-4.667
294401.000			-42.006			-4.667
294501.000			-42.005			-4.667
294602.000			-42.005			-4.667
294700.000			-42.003			-4.667
294800.000			-42.003			-4.667
294901.000			-42.004			-4.667
295000.000			-42.003			-4.667
295100.000			-42.002			-4.667
295201.000			-42.002			-4.667
295301.000			-42.002			-4.667
295401.000			-42.001			-4.667
295502.000			-42.000			-4.667
295600.000			-42.001			-4.667
295700.000			-42.000			-4.667
295801.000			-41.999			-4.667
295900.000			-42.000			-4.667
296000.000			-41.999			-4.667
296101.000			-41.998			-4.666
296200.000			-41.998			-4.666
296301.000			-41.998			-4.666
296402.000			-41.997			-4.666
296501.000			-41.997			-4.666
296600.000			-41.997			-4.666
296701.000			-41.997			-4.666
296800.000			-41.997			-4.666
296901.000			-41.996			-4.666
297000.000			-41.994			-4.666
297100.000			-41.994			-4.666
297201.000			-41.995			-4.666
297301.000			-41.995			-4.666
297401.000			-41.994			-4.666
297502.000			-41.994			-4.666
297600.000			-41.994			-4.666
297700.000			-41.994			-4.666
297801.000			-41.993			-4.666
297900.000			-41.992			-4.666
298000.000			-41.992			-4.666
298101.000			-41.991			-4.666
298200.000			-41.991			-4.666
298301.000			-41.991			-4.666
298402.000			-41.989			-4.665
298501.000			-41.989			-4.665
298600.000			-41.989			-4.665
298701.000			-41.989			-4.665
298800.000			-41.989			-4.665
298900.000			-41.988			-4.665
299001.000			-41.988			-4.665
299100.000			-41.989			-4.665
299200.000			-41.988			-4.665
299301.000			-41.986			-4.665
299401.000			-41.986			-4.665
299501.000			-41.985			-4.665
299602.000			-41.986			-4.665
299700.000			-41.985			-4.665
299800.000			-41.984			-4.665
299901.000			-41.984			-4.665
