# Acquired on 10/01/2024 16:41:55 
# SPIDER: Creep_9mm_07714532B-2
# CREEP MEASUREMENT

# time [ms]		force [N]		stiffness [N/mm]
0.000			-41.888			-4.654
101.000			-43.222			-4.802
200.000			-43.544			-4.838
300.000			-43.245			-4.805
402.000			-42.939			-4.771
501.000			-42.727			-4.747
600.000			-42.551			-4.728
701.000			-42.267			-4.696
800.000			-42.149			-4.683
900.000			-42.043			-4.671
1001.000			-41.946			-4.661
1101.000			-41.857			-4.651
1201.000			-41.776			-4.642
1301.000			-41.700			-4.633
1400.000			-41.562			-4.618
1500.000			-41.500			-4.611
1601.000			-41.441			-4.605
1700.000			-41.385			-4.598
1800.000			-41.331			-4.592
1902.000			-41.280			-4.587
2001.000			-41.232			-4.581
2100.000			-41.142			-4.571
2201.000			-41.099			-4.567
2300.000			-41.058			-4.562
2400.000			-41.019			-4.558
2501.000			-40.981			-4.553
2601.000			-40.945			-4.549
2702.000			-40.908			-4.545
2801.000			-40.842			-4.538
2900.000			-40.809			-4.534
3001.000			-40.779			-4.531
3100.000			-40.750			-4.528
3200.000			-40.720			-4.524
3301.000			-40.691			-4.521
3401.000			-40.663			-4.518
3501.000			-40.636			-4.515
3601.000			-40.583			-4.509
3700.000			-40.559			-4.507
3800.000			-40.535			-4.504
3901.000			-40.511			-4.501
4000.000			-40.487			-4.499
4100.000			-40.465			-4.496
4202.000			-40.442			-4.494
4301.000			-40.400			-4.489
4400.000			-40.378			-4.486
4501.000			-40.357			-4.484
4600.000			-40.338			-4.482
4700.000			-40.319			-4.480
4801.000			-40.298			-4.478
4901.000			-40.280			-4.476
5001.000			-40.242			-4.471
5101.000			-40.225			-4.469
5200.000			-40.206			-4.467
5300.000			-40.189			-4.465
5401.000			-40.172			-4.464
5500.000			-40.156			-4.462
5600.000			-40.139			-4.460
5702.000			-40.108			-4.456
5801.000			-40.092			-4.455
5901.000			-40.076			-4.453
6000.000			-40.061			-4.451
6100.000			-40.046			-4.450
6201.000			-40.032			-4.448
6300.000			-40.018			-4.446
6401.000			-40.003			-4.445
6502.000			-39.974			-4.442
6600.000			-39.961			-4.440
6700.000			-39.949			-4.439
6801.000			-39.935			-4.437
6900.000			-39.921			-4.436
7000.000			-39.908			-4.434
7101.000			-39.895			-4.433
7201.000			-39.870			-4.430
7301.000			-39.858			-4.429
7401.000			-39.845			-4.427
7500.000			-39.833			-4.426
7600.000			-39.821			-4.425
7701.000			-39.809			-4.423
7800.000			-39.798			-4.422
7900.000			-39.775			-4.419
8002.000			-39.764			-4.418
8101.000			-39.753			-4.417
8200.000			-39.741			-4.416
8301.000			-39.731			-4.415
8400.000			-39.720			-4.413
8500.000			-39.709			-4.412
8601.000			-39.699			-4.411
8700.000			-39.678			-4.409
8801.000			-39.668			-4.408
8902.000			-39.658			-4.406
9000.000			-39.648			-4.405
9101.000			-39.638			-4.404
9200.000			-39.627			-4.403
9300.000			-39.618			-4.402
9401.000			-39.598			-4.400
9500.000			-39.589			-4.399
9601.000			-39.580			-4.398
9702.000			-39.570			-4.397
9800.000			-39.561			-4.396
9900.000			-39.552			-4.395
10001.000			-39.544			-4.394
10100.000			-39.525			-4.392
10200.000			-39.517			-4.391
10301.000			-39.509			-4.390
10401.000			-39.500			-4.389
10501.000			-39.491			-4.388
10601.000			-39.482			-4.387
10700.000			-39.474			-4.386
10800.000			-39.458			-4.384
10901.000			-39.449			-4.383
11000.000			-39.441			-4.382
11100.000			-39.433			-4.381
11202.000			-39.425			-4.381
11301.000			-39.417			-4.380
11400.000			-39.410			-4.379
11501.000			-39.402			-4.378
11600.000			-39.385			-4.376
11700.000			-39.378			-4.375
11801.000			-39.370			-4.374
11901.000			-39.363			-4.374
12001.000			-39.356			-4.373
12101.000			-39.348			-4.372
12200.000			-39.342			-4.371
12301.000			-39.327			-4.370
12400.000			-39.320			-4.369
12500.000			-39.312			-4.368
12601.000			-39.305			-4.367
12701.000			-39.298			-4.366
12801.000			-39.292			-4.366
12901.000			-39.285			-4.365
13000.000			-39.271			-4.363
13100.000			-39.264			-4.363
13201.000			-39.258			-4.362
13300.000			-39.251			-4.361
13400.000			-39.244			-4.360
13502.000			-39.238			-4.360
13601.000			-39.231			-4.359
13700.000			-39.218			-4.358
13801.000			-39.213			-4.357
13900.000			-39.206			-4.356
14000.000			-39.199			-4.355
14101.000			-39.193			-4.355
14200.000			-39.188			-4.354
14301.000			-39.182			-4.354
14402.000			-39.176			-4.353
14500.000			-39.163			-4.351
14600.000			-39.157			-4.351
14701.000			-39.150			-4.350
14800.000			-39.144			-4.349
14900.000			-39.139			-4.349
15001.000			-39.134			-4.348
15101.000			-39.128			-4.348
15201.000			-39.116			-4.346
15301.000			-39.111			-4.346
15400.000			-39.105			-4.345
15501.000			-39.100			-4.344
15600.000			-39.094			-4.344
15700.000			-39.088			-4.343
15801.000			-39.083			-4.343
15900.000			-39.072			-4.341
16001.000			-39.066			-4.341
16102.000			-39.060			-4.340
16200.000			-39.055			-4.339
16300.000			-39.049			-4.339
16401.000			-39.044			-4.338
16500.000			-39.039			-4.338
16600.000			-39.035			-4.337
16702.000			-39.024			-4.336
16801.000			-39.018			-4.335
16900.000			-39.013			-4.335
17001.000			-39.007			-4.334
17100.000			-39.002			-4.334
17200.000			-38.997			-4.333
17301.000			-38.992			-4.332
17400.000			-38.982			-4.331
17500.000			-38.976			-4.331
17602.000			-38.972			-4.330
17701.000			-38.968			-4.330
17800.000			-38.963			-4.329
17901.000			-38.957			-4.329
18000.000			-38.952			-4.328
18100.000			-38.943			-4.327
18201.000			-38.938			-4.326
18300.000			-38.933			-4.326
18401.000			-38.929			-4.325
18502.000			-38.924			-4.325
18600.000			-38.919			-4.324
18701.000			-38.914			-4.324
18800.000			-38.906			-4.323
18900.000			-38.900			-4.322
19001.000			-38.896			-4.322
19100.000			-38.891			-4.321
19201.000			-38.887			-4.321
19302.000			-38.883			-4.320
19400.000			-38.878			-4.320
19500.000			-38.874			-4.319
19601.000			-38.864			-4.318
19700.000			-38.860			-4.318
19800.000			-38.857			-4.317
19901.000			-38.852			-4.317
20001.000			-38.847			-4.316
20101.000			-38.842			-4.316
20201.000			-38.839			-4.315
20300.000			-38.831			-4.315
20400.000			-38.826			-4.314
20501.000			-38.821			-4.313
20600.000			-38.817			-4.313
20700.000			-38.814			-4.313
20802.000			-38.809			-4.312
20901.000			-38.804			-4.312
21001.000			-38.797			-4.311
21101.000			-38.792			-4.310
21200.000			-38.788			-4.310
21300.000			-38.784			-4.309
21401.000			-38.779			-4.309
21500.000			-38.776			-4.308
21600.000			-38.772			-4.308
21702.000			-38.765			-4.307
21801.000			-38.761			-4.307
21901.000			-38.757			-4.306
22000.000			-38.754			-4.306
22100.000			-38.750			-4.306
22201.000			-38.746			-4.305
22300.000			-38.741			-4.305
22400.000			-38.737			-4.304
22502.000			-38.730			-4.303
22601.000			-38.726			-4.303
22700.000			-38.723			-4.303
22801.000			-38.719			-4.302
22900.000			-38.715			-4.302
23000.000			-38.710			-4.301
23101.000			-38.707			-4.301
23200.000			-38.699			-4.300
23301.000			-38.696			-4.300
23402.000			-38.692			-4.299
23500.000			-38.688			-4.299
23600.000			-38.685			-4.298
23701.000			-38.682			-4.298
23800.000			-38.678			-4.298
23900.000			-38.669			-4.297
24001.000			-38.666			-4.296
24101.000			-38.662			-4.296
24201.000			-38.659			-4.295
24301.000			-38.655			-4.295
24400.000			-38.652			-4.295
24500.000			-38.649			-4.294
24601.000			-38.642			-4.294
24700.000			-38.639			-4.293
24800.000			-38.635			-4.293
24902.000			-38.632			-4.292
25001.000			-38.628			-4.292
25101.000			-38.624			-4.292
25200.000			-38.620			-4.291
25300.000			-38.618			-4.291
25401.000			-38.611			-4.290
25500.000			-38.607			-4.290
25600.000			-38.605			-4.289
25702.000			-38.600			-4.289
25801.000			-38.596			-4.288
25901.000			-38.593			-4.288
26001.000			-38.590			-4.288
26100.000			-38.583			-4.287
26200.000			-38.580			-4.287
26301.000			-38.577			-4.286
26400.000			-38.574			-4.286
26500.000			-38.570			-4.286
26602.000			-38.567			-4.285
26701.000			-38.564			-4.285
26800.000			-38.557			-4.284
26901.000			-38.554			-4.284
27000.000			-38.551			-4.283
27100.000			-38.547			-4.283
27201.000			-38.543			-4.283
27300.000			-38.541			-4.282
27401.000			-38.538			-4.282
27502.000			-38.532			-4.281
27600.000			-38.528			-4.281
27700.000			-38.526			-4.281
27801.000			-38.524			-4.280
27900.000			-38.521			-4.280
28000.000			-38.517			-4.280
28101.000			-38.513			-4.279
28201.000			-38.511			-4.279
28302.000			-38.505			-4.278
28400.000			-38.502			-4.278
28500.000			-38.499			-4.278
28601.000			-38.496			-4.277
28700.000			-38.493			-4.277
28800.000			-38.490			-4.277
28901.000			-38.487			-4.276
29001.000			-38.479			-4.275
29101.000			-38.476			-4.275
29201.000			-38.474			-4.275
29300.000			-38.472			-4.275
29400.000			-38.469			-4.274
29501.000			-38.466			-4.274
29600.000			-38.463			-4.274
29700.000			-38.458			-4.273
29802.000			-38.455			-4.273
29901.000			-38.453			-4.273
30001.000			-38.449			-4.272
30101.000			-38.446			-4.272
30200.000			-38.443			-4.271
30300.000			-38.440			-4.271
30401.000			-38.436			-4.271
30500.000			-38.432			-4.270
30601.000			-38.430			-4.270
30702.000			-38.426			-4.270
30801.000			-38.423			-4.269
30900.000			-38.421			-4.269
31001.000			-38.418			-4.269
31100.000			-38.415			-4.268
31200.000			-38.410			-4.268
31301.000			-38.407			-4.267
31401.000			-38.405			-4.267
31502.000			-38.401			-4.267
31601.000			-38.398			-4.266
31700.000			-38.396			-4.266
31801.000			-38.393			-4.266
31900.000			-38.388			-4.265
32000.000			-38.386			-4.265
32101.000			-38.383			-4.265
32200.000			-38.380			-4.264
32301.000			-38.377			-4.264
32402.000			-38.375			-4.264
32500.000			-38.373			-4.264
32600.000			-38.367			-4.263
32701.000			-38.364			-4.263
32800.000			-38.361			-4.262
32900.000			-38.359			-4.262
33001.000			-38.357			-4.262
33101.000			-38.355			-4.262
33201.000			-38.352			-4.261
33301.000			-38.348			-4.261
33400.000			-38.344			-4.260
33500.000			-38.341			-4.260
33601.000			-38.338			-4.260
33700.000			-38.336			-4.260
33800.000			-38.334			-4.259
33902.000			-38.331			-4.259
34001.000			-38.328			-4.259
34100.000			-38.324			-4.258
34201.000			-38.321			-4.258
34300.000			-38.318			-4.258
34400.000			-38.317			-4.257
34501.000			-38.314			-4.257
34601.000			-38.311			-4.257
34702.000			-38.308			-4.256
34800.000			-38.303			-4.256
34900.000			-38.301			-4.256
35001.000			-38.298			-4.255
35100.000			-38.296			-4.255
35200.000			-38.295			-4.255
35301.000			-38.292			-4.255
35401.000			-38.289			-4.254
35501.000			-38.284			-4.254
35602.000			-38.281			-4.253
35700.000			-38.278			-4.253
35800.000			-38.276			-4.253
35901.000			-38.275			-4.253
36000.000			-38.272			-4.252
36100.000			-38.270			-4.252
36201.000			-38.267			-4.252
36301.000			-38.261			-4.251
36401.000			-38.259			-4.251
36501.000			-38.258			-4.251
36600.000			-38.255			-4.251
36700.000			-38.252			-4.250
36801.000			-38.250			-4.250
36900.000			-38.248			-4.250
37000.000			-38.242			-4.249
37102.000			-38.240			-4.249
37201.000			-38.238			-4.249
37300.000			-38.236			-4.248
37401.000			-38.234			-4.248
37500.000			-38.231			-4.248
37600.000			-38.229			-4.248
37701.000			-38.224			-4.247
37800.000			-38.222			-4.247
37902.000			-38.219			-4.247
38001.000			-38.218			-4.246
38100.000			-38.215			-4.246
38201.000			-38.213			-4.246
38300.000			-38.210			-4.246
38400.000			-38.207			-4.245
38501.000			-38.204			-4.245
38600.000			-38.203			-4.245
38701.000			-38.200			-4.244
38802.000			-38.197			-4.244
38900.000			-38.195			-4.244
39000.000			-38.193			-4.244
39101.000			-38.190			-4.243
39200.000			-38.188			-4.243
39300.000			-38.184			-4.243
39401.000			-38.181			-4.242
39501.000			-38.180			-4.242
39601.000			-38.178			-4.242
39701.000			-38.175			-4.242
39800.000			-38.174			-4.242
39900.000			-38.170			-4.241
40001.000			-38.168			-4.241
40100.000			-38.165			-4.241
40200.000			-38.163			-4.240
40302.000			-38.160			-4.240
40401.000			-38.157			-4.240
40500.000			-38.156			-4.240
40601.000			-38.152			-4.239
40700.000			-38.150			-4.239
40800.000			-38.148			-4.239
40901.000			-38.146			-4.238
41000.000			-38.144			-4.238
41102.000			-38.142			-4.238
41201.000			-38.140			-4.238
41300.000			-38.138			-4.238
41401.000			-38.133			-4.237
41500.000			-38.131			-4.237
41600.000			-38.129			-4.237
41701.000			-38.127			-4.236
41801.000			-38.125			-4.236
41901.000			-38.124			-4.236
42001.000			-38.122			-4.236
42100.000			-38.117			-4.235
42200.000			-38.115			-4.235
42301.000			-38.113			-4.235
42400.000			-38.110			-4.234
42500.000			-38.108			-4.234
42602.000			-38.107			-4.234
42701.000			-38.105			-4.234
42800.000			-38.101			-4.233
42901.000			-38.099			-4.233
43000.000			-38.097			-4.233
43100.000			-38.095			-4.233
43201.000			-38.094			-4.233
43300.000			-38.091			-4.232
43401.000			-38.088			-4.232
43502.000			-38.084			-4.232
43600.000			-38.083			-4.231
43700.000			-38.081			-4.231
43801.000			-38.079			-4.231
43900.000			-38.078			-4.231
44000.000			-38.075			-4.231
44101.000			-38.074			-4.230
44201.000			-38.072			-4.230
44302.000			-38.067			-4.230
44400.000			-38.066			-4.230
44500.000			-38.064			-4.229
44601.000			-38.061			-4.229
44700.000			-38.059			-4.229
44800.000			-38.057			-4.229
44901.000			-38.056			-4.228
45001.000			-38.052			-4.228
45101.000			-38.050			-4.228
45201.000			-38.049			-4.228
45300.000			-38.048			-4.228
45400.000			-38.046			-4.227
45501.000			-38.044			-4.227
45600.000			-38.042			-4.227
45700.000			-38.037			-4.226
45802.000			-38.036			-4.226
45901.000			-38.034			-4.226
46000.000			-38.032			-4.226
46101.000			-38.030			-4.226
46200.000			-38.027			-4.225
46300.000			-38.026			-4.225
46401.000			-38.022			-4.225
46500.000			-38.021			-4.225
46601.000			-38.019			-4.224
46702.000			-38.017			-4.224
46800.000			-38.014			-4.224
46900.000			-38.012			-4.224
47001.000			-38.010			-4.223
47100.000			-38.009			-4.223
47200.000			-38.007			-4.223
47301.000			-38.005			-4.223
47401.000			-38.002			-4.222
47502.000			-38.001			-4.222
47600.000			-37.998			-4.222
47700.000			-37.997			-4.222
47801.000			-37.996			-4.222
47900.000			-37.991			-4.221
48000.000			-37.990			-4.221
48101.000			-37.988			-4.221
48201.000			-37.987			-4.221
48301.000			-37.985			-4.221
48401.000			-37.983			-4.220
48500.000			-37.982			-4.220
48600.000			-37.977			-4.220
48701.000			-37.977			-4.220
48800.000			-37.976			-4.220
48900.000			-37.973			-4.219
49001.000			-37.971			-4.219
49101.000			-37.970			-4.219
49201.000			-37.968			-4.219
49301.000			-37.963			-4.218
49400.000			-37.961			-4.218
49500.000			-37.960			-4.218
49601.000			-37.959			-4.218
49700.000			-37.958			-4.218
49800.000			-37.956			-4.217
49902.000			-37.954			-4.217
50001.000			-37.952			-4.217
50100.000			-37.949			-4.217
50201.000			-37.946			-4.216
50300.000			-37.945			-4.216
50400.000			-37.943			-4.216
50501.000			-37.943			-4.216
50600.000			-37.941			-4.216
50702.000			-37.939			-4.215
50801.000			-37.936			-4.215
50901.000			-37.934			-4.215
51001.000			-37.932			-4.215
51100.000			-37.931			-4.215
51200.000			-37.929			-4.214
51301.000			-37.927			-4.214
51400.000			-37.925			-4.214
51500.000			-37.921			-4.213
51602.000			-37.920			-4.213
51701.000			-37.919			-4.213
51800.000			-37.916			-4.213
51901.000			-37.915			-4.213
52000.000			-37.914			-4.213
52100.000			-37.913			-4.213
52201.000			-37.911			-4.212
52301.000			-37.908			-4.212
52401.000			-37.906			-4.212
52501.000			-37.904			-4.212
52600.000			-37.903			-4.211
52700.000			-37.902			-4.211
52801.000			-37.900			-4.211
52900.000			-37.898			-4.211
53000.000			-37.895			-4.211
53101.000			-37.894			-4.210
53201.000			-37.891			-4.210
53301.000			-37.889			-4.210
53401.000			-37.887			-4.210
53500.000			-37.886			-4.210
53600.000			-37.886			-4.210
53701.000			-37.881			-4.209
53800.000			-37.880			-4.209
53901.000			-37.879			-4.209
54001.000			-37.879			-4.209
54101.000			-37.877			-4.209
54202.000			-37.874			-4.208
54300.000			-37.873			-4.208
54400.000			-37.871			-4.208
54501.000			-37.869			-4.208
54600.000			-37.866			-4.207
54700.000			-37.864			-4.207
54801.000			-37.862			-4.207
54901.000			-37.861			-4.207
55001.000			-37.860			-4.207
55101.000			-37.858			-4.206
55200.000			-37.855			-4.206
55300.000			-37.853			-4.206
55401.000			-37.852			-4.206
55500.000			-37.852			-4.206
55600.000			-37.850			-4.206
55702.000			-37.848			-4.205
55801.000			-37.847			-4.205
55900.000			-37.843			-4.205
56001.000			-37.843			-4.205
56100.000			-37.841			-4.205
56200.000			-37.839			-4.204
56301.000			-37.837			-4.204
56400.000			-37.836			-4.204
56501.000			-37.834			-4.204
56602.000			-37.832			-4.204
56700.000			-37.830			-4.203
56800.000			-37.829			-4.203
56901.000			-37.827			-4.203
57000.000			-37.825			-4.203
57101.000			-37.824			-4.203
57200.000			-37.823			-4.203
57301.000			-37.820			-4.202
57402.000			-37.818			-4.202
57501.000			-37.817			-4.202
57600.000			-37.815			-4.202
57701.000			-37.814			-4.202
57800.000			-37.813			-4.201
57900.000			-37.811			-4.201
58001.000			-37.809			-4.201
58101.000			-37.807			-4.201
58201.000			-37.805			-4.201
58302.000			-37.804			-4.200
58400.000			-37.803			-4.200
58500.000			-37.801			-4.200
58601.000			-37.800			-4.200
58700.000			-37.798			-4.200
58800.000			-37.795			-4.199
58901.000			-37.794			-4.199
59001.000			-37.792			-4.199
59101.000			-37.789			-4.199
59201.000			-37.787			-4.199
59300.000			-37.787			-4.199
59400.000			-37.786			-4.198
59501.000			-37.783			-4.198
59600.000			-37.782			-4.198
59700.000			-37.781			-4.198
59802.000			-37.780			-4.198
59901.000			-37.779			-4.198
60001.000			-37.776			-4.197
60101.000			-37.774			-4.197
60200.000			-37.772			-4.197
60301.000			-37.771			-4.197
60400.000			-37.768			-4.196
60500.000			-37.767			-4.196
60601.000			-37.767			-4.196
60701.000			-37.766			-4.196
60801.000			-37.764			-4.196
60901.000			-37.763			-4.196
61000.000			-37.759			-4.195
61100.000			-37.757			-4.195
61201.000			-37.756			-4.195
61300.000			-37.754			-4.195
61400.000			-37.753			-4.195
61502.000			-37.752			-4.195
61601.000			-37.751			-4.195
61700.000			-37.747			-4.194
61801.000			-37.747			-4.194
61900.000			-37.746			-4.194
62000.000			-37.744			-4.194
62101.000			-37.741			-4.193
62200.000			-37.741			-4.193
62301.000			-37.740			-4.193
62402.000			-37.737			-4.193
62501.000			-37.736			-4.193
62600.000			-37.734			-4.193
62701.000			-37.732			-4.192
62800.000			-37.732			-4.192
62900.000			-37.731			-4.192
63001.000			-37.729			-4.192
63101.000			-37.726			-4.192
63201.000			-37.725			-4.192
63302.000			-37.724			-4.192
63400.000			-37.721			-4.191
63501.000			-37.719			-4.191
63600.000			-37.719			-4.191
63700.000			-37.718			-4.191
63801.000			-37.717			-4.191
63900.000			-37.713			-4.190
64001.000			-37.713			-4.190
64102.000			-37.711			-4.190
64200.000			-37.710			-4.190
64300.000			-37.709			-4.190
64401.000			-37.707			-4.190
64500.000			-37.706			-4.190
64600.000			-37.703			-4.189
64701.000			-37.702			-4.189
64801.000			-37.701			-4.189
64901.000			-37.700			-4.189
65001.000			-37.698			-4.189
65100.000			-37.697			-4.189
65200.000			-37.695			-4.188
65301.000			-37.693			-4.188
65400.000			-37.691			-4.188
65500.000			-37.690			-4.188
65602.000			-37.688			-4.188
65701.000			-37.687			-4.187
65800.000			-37.686			-4.187
65901.000			-37.685			-4.187
66000.000			-37.683			-4.187
66100.000			-37.680			-4.187
66201.000			-37.679			-4.187
66300.000			-37.679			-4.187
66400.000			-37.677			-4.186
66502.000			-37.676			-4.186
66601.000			-37.674			-4.186
66701.000			-37.674			-4.186
66800.000			-37.671			-4.186
66900.000			-37.670			-4.186
67001.000			-37.668			-4.185
67100.000			-37.666			-4.185
67200.000			-37.665			-4.185
67302.000			-37.665			-4.185
67401.000			-37.663			-4.185
67500.000			-37.661			-4.185
67601.000			-37.659			-4.184
67700.000			-37.658			-4.184
67800.000			-37.657			-4.184
67901.000			-37.656			-4.184
68000.000			-37.655			-4.184
68100.000			-37.653			-4.184
68202.000			-37.651			-4.183
68301.000			-37.650			-4.183
68400.000			-37.648			-4.183
68501.000			-37.647			-4.183
68600.000			-37.647			-4.183
68700.000			-37.645			-4.183
68801.000			-37.643			-4.183
68900.000			-37.643			-4.183
69001.000			-37.639			-4.182
69102.000			-37.638			-4.182
69200.000			-37.638			-4.182
69300.000			-37.637			-4.182
69401.000			-37.635			-4.182
69500.000			-37.634			-4.182
69600.000			-37.633			-4.181
69701.000			-37.629			-4.181
69801.000			-37.628			-4.181
69902.000			-37.627			-4.181
70001.000			-37.626			-4.181
70100.000			-37.626			-4.181
70201.000			-37.625			-4.181
70300.000			-37.623			-4.180
70400.000			-37.621			-4.180
70501.000			-37.619			-4.180
70600.000			-37.619			-4.180
70701.000			-37.618			-4.180
70802.000			-37.617			-4.180
70900.000			-37.615			-4.179
71000.000			-37.613			-4.179
71101.000			-37.611			-4.179
71200.000			-37.611			-4.179
71300.000			-37.610			-4.179
71401.000			-37.607			-4.179
71501.000			-37.606			-4.178
71601.000			-37.605			-4.178
71701.000			-37.604			-4.178
71800.000			-37.601			-4.178
71900.000			-37.601			-4.178
72001.000			-37.599			-4.178
72100.000			-37.598			-4.178
72200.000			-37.597			-4.177
72302.000			-37.596			-4.177
72401.000			-37.595			-4.177
72500.000			-37.593			-4.177
72601.000			-37.592			-4.177
72700.000			-37.591			-4.177
72800.000			-37.590			-4.177
72901.000			-37.588			-4.176
73000.000			-37.587			-4.176
73101.000			-37.586			-4.176
73201.000			-37.585			-4.176
73301.000			-37.582			-4.176
73401.000			-37.580			-4.176
73500.000			-37.581			-4.176
73600.000			-37.579			-4.175
73701.000			-37.577			-4.175
73800.000			-37.576			-4.175
73900.000			-37.575			-4.175
74002.000			-37.573			-4.175
74101.000			-37.573			-4.175
74200.000			-37.571			-4.175
74301.000			-37.570			-4.174
74400.000			-37.568			-4.174
74500.000			-37.567			-4.174
74601.000			-37.566			-4.174
74700.000			-37.565			-4.174
74801.000			-37.564			-4.174
74902.000			-37.563			-4.174
75001.000			-37.562			-4.174
75100.000			-37.560			-4.173
75201.000			-37.558			-4.173
75300.000			-37.557			-4.173
75400.000			-37.556			-4.173
75501.000			-37.554			-4.173
75600.000			-37.554			-4.173
75701.000			-37.553			-4.173
75802.000			-37.551			-4.172
75900.000			-37.549			-4.172
76000.000			-37.548			-4.172
76101.000			-37.547			-4.172
76200.000			-37.545			-4.172
76301.000			-37.545			-4.172
76400.000			-37.544			-4.172
76501.000			-37.543			-4.171
76602.000			-37.542			-4.171
76700.000			-37.541			-4.171
76800.000			-37.539			-4.171
76901.000			-37.539			-4.171
77000.000			-37.535			-4.171
77100.000			-37.534			-4.170
77201.000			-37.534			-4.170
77301.000			-37.533			-4.170
77401.000			-37.532			-4.170
77502.000			-37.531			-4.170
77600.000			-37.529			-4.170
77700.000			-37.527			-4.170
77801.000			-37.526			-4.170
77900.000			-37.525			-4.169
78000.000			-37.523			-4.169
78101.000			-37.522			-4.169
78201.000			-37.522			-4.169
78301.000			-37.521			-4.169
78401.000			-37.518			-4.169
78500.000			-37.518			-4.169
78600.000			-37.517			-4.169
78701.000			-37.516			-4.168
78800.000			-37.514			-4.168
78900.000			-37.513			-4.168
79002.000			-37.513			-4.168
79101.000			-37.510			-4.168
79200.000			-37.509			-4.168
79301.000			-37.508			-4.168
79400.000			-37.505			-4.167
79501.000			-37.504			-4.167
79600.000			-37.504			-4.167
79700.000			-37.503			-4.167
79801.000			-37.502			-4.167
79901.000			-37.500			-4.167
80001.000			-37.500			-4.167
80101.000			-37.498			-4.166
80200.000			-37.497			-4.166
80300.000			-37.496			-4.166
80401.000			-37.496			-4.166
80500.000			-37.494			-4.166
80600.000			-37.493			-4.166
80702.000			-37.491			-4.166
80801.000			-37.490			-4.166
80900.000			-37.489			-4.165
81001.000			-37.487			-4.165
81100.000			-37.487			-4.165
81200.000			-37.486			-4.165
81301.000			-37.483			-4.165
81400.000			-37.482			-4.165
81501.000			-37.481			-4.165
81602.000			-37.481			-4.165
81701.000			-37.480			-4.164
81800.000			-37.478			-4.164
81901.000			-37.477			-4.164
82000.000			-37.474			-4.164
82100.000			-37.474			-4.164
82201.000			-37.474			-4.164
82300.000			-37.473			-4.164
82401.000			-37.472			-4.164
82502.000			-37.469			-4.163
82600.000			-37.468			-4.163
82701.000			-37.468			-4.163
82800.000			-37.466			-4.163
82900.000			-37.465			-4.163
83001.000			-37.463			-4.163
83100.000			-37.461			-4.162
83201.000			-37.460			-4.162
83302.000			-37.460			-4.162
83400.000			-37.460			-4.162
83500.000			-37.457			-4.162
83601.000			-37.457			-4.162
83700.000			-37.455			-4.162
83800.000			-37.454			-4.162
83901.000			-37.453			-4.161
84001.000			-37.451			-4.161
84101.000			-37.451			-4.161
84201.000			-37.449			-4.161
84300.000			-37.448			-4.161
84400.000			-37.447			-4.161
84501.000			-37.445			-4.161
84600.000			-37.445			-4.161
84700.000			-37.445			-4.161
84802.000			-37.443			-4.160
84901.000			-37.442			-4.160
85001.000			-37.440			-4.160
85101.000			-37.439			-4.160
85200.000			-37.437			-4.160
85300.000			-37.437			-4.160
85401.000			-37.435			-4.159
85500.000			-37.435			-4.159
85601.000			-37.435			-4.159
85702.000			-37.432			-4.159
85801.000			-37.432			-4.159
85901.000			-37.431			-4.159
86000.000			-37.429			-4.159
86100.000			-37.427			-4.159
86201.000			-37.427			-4.159
86300.000			-37.426			-4.158
86400.000			-37.424			-4.158
86502.000			-37.424			-4.158
86601.000			-37.423			-4.158
86700.000			-37.422			-4.158
86801.000			-37.420			-4.158
86900.000			-37.419			-4.158
87000.000			-37.419			-4.158
87101.000			-37.416			-4.157
87200.000			-37.415			-4.157
87301.000			-37.414			-4.157
87402.000			-37.413			-4.157
87500.000			-37.414			-4.157
87600.000			-37.412			-4.157
87701.000			-37.412			-4.157
87800.000			-37.411			-4.157
87900.000			-37.408			-4.156
88001.000			-37.407			-4.156
88101.000			-37.406			-4.156
88201.000			-37.405			-4.156
88301.000			-37.404			-4.156
88400.000			-37.403			-4.156
88500.000			-37.403			-4.156
88601.000			-37.401			-4.156
88700.000			-37.400			-4.156
88800.000			-37.399			-4.155
88901.000			-37.399			-4.155
89001.000			-37.398			-4.155
89102.000			-37.396			-4.155
89200.000			-37.395			-4.155
89300.000			-37.394			-4.155
89401.000			-37.393			-4.155
89500.000			-37.391			-4.155
89600.000			-37.390			-4.154
89701.000			-37.389			-4.154
89801.000			-37.388			-4.154
89901.000			-37.388			-4.154
90002.000			-37.385			-4.154
90100.000			-37.384			-4.154
90200.000			-37.383			-4.154
90301.000			-37.383			-4.154
90400.000			-37.383			-4.154
90500.000			-37.382			-4.154
90601.000			-37.382			-4.154
90701.000			-37.380			-4.153
90801.000			-37.378			-4.153
90901.000			-37.377			-4.153
91000.000			-37.374			-4.153
91100.000			-37.373			-4.153
91201.000			-37.374			-4.153
91300.000			-37.373			-4.153
91400.000			-37.372			-4.152
91502.000			-37.371			-4.152
91601.000			-37.370			-4.152
91700.000			-37.368			-4.152
91801.000			-37.367			-4.152
91900.000			-37.366			-4.152
92000.000			-37.366			-4.152
92101.000			-37.366			-4.152
92200.000			-37.365			-4.152
92302.000			-37.362			-4.151
92401.000			-37.361			-4.151
92501.000			-37.359			-4.151
92601.000			-37.358			-4.151
92700.000			-37.357			-4.151
92800.000			-37.357			-4.151
92901.000			-37.356			-4.151
93000.000			-37.355			-4.151
93100.000			-37.354			-4.150
93202.000			-37.352			-4.150
93301.000			-37.351			-4.150
93400.000			-37.351			-4.150
93501.000			-37.350			-4.150
93600.000			-37.350			-4.150
93700.000			-37.348			-4.150
93801.000			-37.348			-4.150
93900.000			-37.347			-4.150
94001.000			-37.346			-4.150
94102.000			-37.345			-4.149
94200.000			-37.344			-4.149
94300.000			-37.343			-4.149
94401.000			-37.341			-4.149
94500.000			-37.340			-4.149
94600.000			-37.339			-4.149
94701.000			-37.338			-4.149
94801.000			-37.337			-4.149
94901.000			-37.335			-4.148
95001.000			-37.336			-4.148
95100.000			-37.334			-4.148
95200.000			-37.333			-4.148
95301.000			-37.332			-4.148
95400.000			-37.331			-4.148
95501.000			-37.330			-4.148
95601.000			-37.329			-4.148
95701.000			-37.329			-4.148
95801.000			-37.327			-4.147
95900.000			-37.326			-4.147
96000.000			-37.325			-4.147
96101.000			-37.324			-4.147
96200.000			-37.323			-4.147
96300.000			-37.322			-4.147
96402.000			-37.321			-4.147
96501.000			-37.320			-4.147
96601.000			-37.318			-4.146
96701.000			-37.319			-4.147
96800.000			-37.318			-4.146
96900.000			-37.316			-4.146
97001.000			-37.316			-4.146
97100.000			-37.315			-4.146
97200.000			-37.314			-4.146
97302.000			-37.313			-4.146
97401.000			-37.311			-4.146
97500.000			-37.311			-4.146
97601.000			-37.310			-4.146
97700.000			-37.310			-4.146
97800.000			-37.309			-4.145
97901.000			-37.307			-4.145
98000.000			-37.305			-4.145
98101.000			-37.304			-4.145
98202.000			-37.304			-4.145
98300.000			-37.302			-4.145
98400.000			-37.302			-4.145
98501.000			-37.302			-4.145
98600.000			-37.300			-4.144
98701.000			-37.300			-4.144
98800.000			-37.297			-4.144
98900.000			-37.297			-4.144
99002.000			-37.296			-4.144
99101.000			-37.295			-4.144
99200.000			-37.295			-4.144
99301.000			-37.294			-4.144
99400.000			-37.293			-4.144
99500.000			-37.293			-4.144
99601.000			-37.292			-4.144
99700.000			-37.291			-4.143
99801.000			-37.289			-4.143
99902.000			-37.288			-4.143
100001.000			-37.287			-4.143
100100.000			-37.287			-4.143
100201.000			-37.285			-4.143
100300.000			-37.284			-4.143
100400.000			-37.283			-4.143
100501.000			-37.283			-4.143
100600.000			-37.282			-4.142
100701.000			-37.281			-4.142
100802.000			-37.279			-4.142
100900.000			-37.278			-4.142
101000.000			-37.276			-4.142
101101.000			-37.276			-4.142
101200.000			-37.276			-4.142
101300.000			-37.275			-4.142
101401.000			-37.275			-4.142
101501.000			-37.274			-4.142
101601.000			-37.272			-4.141
101701.000			-37.271			-4.141
101800.000			-37.268			-4.141
101901.000			-37.268			-4.141
102000.000			-37.268			-4.141
102100.000			-37.266			-4.141
102201.000			-37.266			-4.141
102300.000			-37.265			-4.141
102401.000			-37.264			-4.140
102502.000			-37.262			-4.140
102600.000			-37.262			-4.140
102700.000			-37.261			-4.140
102801.000			-37.260			-4.140
102900.000			-37.259			-4.140
103000.000			-37.259			-4.140
103101.000			-37.257			-4.140
103201.000			-37.257			-4.140
103301.000			-37.256			-4.140
103401.000			-37.254			-4.139
103500.000			-37.254			-4.139
103600.000			-37.252			-4.139
103701.000			-37.252			-4.139
103800.000			-37.251			-4.139
103900.000			-37.251			-4.139
104001.000			-37.250			-4.139
104101.000			-37.248			-4.139
104201.000			-37.247			-4.139
104301.000			-37.247			-4.139
104400.000			-37.245			-4.138
104500.000			-37.245			-4.138
104601.000			-37.243			-4.138
104700.000			-37.243			-4.138
104800.000			-37.242			-4.138
104902.000			-37.242			-4.138
105001.000			-37.242			-4.138
105101.000			-37.240			-4.138
105200.000			-37.238			-4.138
105300.000			-37.238			-4.138
105401.000			-37.237			-4.137
105500.000			-37.236			-4.137
105600.000			-37.235			-4.137
105702.000			-37.233			-4.137
105801.000			-37.233			-4.137
105900.000			-37.233			-4.137
106001.000			-37.231			-4.137
106100.000			-37.230			-4.137
106200.000			-37.230			-4.137
106301.000			-37.229			-4.137
106400.000			-37.227			-4.136
106500.000			-37.228			-4.136
106602.000			-37.227			-4.136
106701.000			-37.224			-4.136
106800.000			-37.223			-4.136
106901.000			-37.223			-4.136
107000.000			-37.222			-4.136
107100.000			-37.221			-4.136
107201.000			-37.221			-4.136
107300.000			-37.219			-4.135
107401.000			-37.218			-4.135
107502.000			-37.217			-4.135
107600.000			-37.216			-4.135
107700.000			-37.216			-4.135
107801.000			-37.215			-4.135
107900.000			-37.215			-4.135
108000.000			-37.213			-4.135
108101.000			-37.212			-4.135
108201.000			-37.211			-4.135
108302.000			-37.210			-4.134
108401.000			-37.209			-4.134
108500.000			-37.208			-4.134
108601.000			-37.208			-4.134
108700.000			-37.207			-4.134
108800.000			-37.207			-4.134
108901.000			-37.205			-4.134
109000.000			-37.203			-4.134
109101.000			-37.203			-4.134
109202.000			-37.202			-4.134
109300.000			-37.201			-4.133
109400.000			-37.200			-4.133
109501.000			-37.199			-4.133
109600.000			-37.198			-4.133
109700.000			-37.198			-4.133
109801.000			-37.197			-4.133
109900.000			-37.196			-4.133
110001.000			-37.196			-4.133
110102.000			-37.195			-4.133
110200.000			-37.194			-4.133
110300.000			-37.193			-4.133
110401.000			-37.192			-4.132
110500.000			-37.192			-4.132
110600.000			-37.190			-4.132
110701.000			-37.190			-4.132
110801.000			-37.188			-4.132
110901.000			-37.188			-4.132
111001.000			-37.188			-4.132
111100.000			-37.186			-4.132
111200.000			-37.186			-4.132
111301.000			-37.186			-4.132
111400.000			-37.185			-4.132
111501.000			-37.183			-4.131
111600.000			-37.183			-4.131
111701.000			-37.182			-4.131
111802.000			-37.180			-4.131
111900.000			-37.179			-4.131
112000.000			-37.177			-4.131
112101.000			-37.178			-4.131
112200.000			-37.177			-4.131
112300.000			-37.175			-4.131
112401.000			-37.174			-4.130
112501.000			-37.175			-4.131
112601.000			-37.173			-4.130
112701.000			-37.172			-4.130
112800.000			-37.171			-4.130
112900.000			-37.171			-4.130
113001.000			-37.170			-4.130
113100.000			-37.168			-4.130
113200.000			-37.168			-4.130
113302.000			-37.166			-4.130
113401.000			-37.166			-4.130
113501.000			-37.166			-4.130
113601.000			-37.165			-4.129
113700.000			-37.163			-4.129
113800.000			-37.163			-4.129
113901.000			-37.162			-4.129
114000.000			-37.161			-4.129
114100.000			-37.160			-4.129
114202.000			-37.160			-4.129
114301.000			-37.159			-4.129
114400.000			-37.158			-4.129
114501.000			-37.157			-4.129
114600.000			-37.156			-4.128
114701.000			-37.156			-4.128
114800.000			-37.154			-4.128
114900.000			-37.154			-4.128
115002.000			-37.153			-4.128
115101.000			-37.153			-4.128
115201.000			-37.153			-4.128
115301.000			-37.152			-4.128
115400.000			-37.150			-4.128
115500.000			-37.149			-4.128
115601.000			-37.148			-4.128
115700.000			-37.147			-4.127
115800.000			-37.146			-4.127
115902.000			-37.145			-4.127
116001.000			-37.145			-4.127
116100.000			-37.144			-4.127
116201.000			-37.143			-4.127
116300.000			-37.142			-4.127
116400.000			-37.141			-4.127
116501.000			-37.140			-4.127
116600.000			-37.140			-4.127
116701.000			-37.140			-4.127
116802.000			-37.139			-4.127
116900.000			-37.138			-4.126
117000.000			-37.136			-4.126
117101.000			-37.136			-4.126
117200.000			-37.135			-4.126
117300.000			-37.134			-4.126
117401.000			-37.134			-4.126
117501.000			-37.134			-4.126
117601.000			-37.132			-4.126
117702.000			-37.130			-4.126
117800.000			-37.131			-4.126
117901.000			-37.130			-4.126
118000.000			-37.128			-4.125
118100.000			-37.128			-4.125
118201.000			-37.128			-4.125
118300.000			-37.126			-4.125
118401.000			-37.125			-4.125
118502.000			-37.124			-4.125
118600.000			-37.124			-4.125
118700.000			-37.122			-4.125
118801.000			-37.121			-4.125
118900.000			-37.120			-4.124
119000.000			-37.120			-4.124
119101.000			-37.120			-4.124
119201.000			-37.119			-4.124
119301.000			-37.118			-4.124
119402.000			-37.118			-4.124
119500.000			-37.118			-4.124
119600.000			-37.116			-4.124
119701.000			-37.115			-4.124
119800.000			-37.114			-4.124
119900.000			-37.113			-4.124
120001.000			-37.113			-4.124
120101.000			-37.112			-4.124
120201.000			-37.111			-4.123
120301.000			-37.111			-4.123
120400.000			-37.110			-4.123
120500.000			-37.109			-4.123
120601.000			-37.108			-4.123
120700.000			-37.108			-4.123
120800.000			-37.108			-4.123
120902.000			-37.104			-4.123
121001.000			-37.104			-4.123
121101.000			-37.104			-4.123
121200.000			-37.103			-4.123
121300.000			-37.102			-4.122
121401.000			-37.101			-4.122
121500.000			-37.100			-4.122
121600.000			-37.100			-4.122
121702.000			-37.099			-4.122
121801.000			-37.097			-4.122
121900.000			-37.097			-4.122
122001.000			-37.096			-4.122
122100.000			-37.095			-4.122
122200.000			-37.095			-4.122
122301.000			-37.094			-4.122
122400.000			-37.095			-4.122
122501.000			-37.094			-4.122
122602.000			-37.092			-4.121
122701.000			-37.090			-4.121
122800.000			-37.091			-4.121
122901.000			-37.091			-4.121
123000.000			-37.089			-4.121
123100.000			-37.088			-4.121
123201.000			-37.087			-4.121
123300.000			-37.087			-4.121
123401.000			-37.087			-4.121
123502.000			-37.086			-4.121
123600.000			-37.086			-4.121
123700.000			-37.084			-4.120
123801.000			-37.082			-4.120
123900.000			-37.082			-4.120
124000.000			-37.081			-4.120
124101.000			-37.080			-4.120
124201.000			-37.081			-4.120
124302.000			-37.080			-4.120
124401.000			-37.078			-4.120
124500.000			-37.077			-4.120
124601.000			-37.076			-4.120
124700.000			-37.076			-4.120
124800.000			-37.076			-4.120
124901.000			-37.075			-4.119
125000.000			-37.074			-4.119
125101.000			-37.072			-4.119
125202.000			-37.072			-4.119
125300.000			-37.072			-4.119
125400.000			-37.071			-4.119
125501.000			-37.069			-4.119
125600.000			-37.069			-4.119
125700.000			-37.068			-4.119
125801.000			-37.067			-4.119
125901.000			-37.066			-4.118
126001.000			-37.067			-4.119
126102.000			-37.066			-4.118
126200.000			-37.065			-4.118
126300.000			-37.064			-4.118
126401.000			-37.062			-4.118
126500.000			-37.062			-4.118
126600.000			-37.062			-4.118
126701.000			-37.061			-4.118
126801.000			-37.060			-4.118
126901.000			-37.059			-4.118
127001.000			-37.059			-4.118
127100.000			-37.058			-4.118
127200.000			-37.056			-4.117
127301.000			-37.055			-4.117
127400.000			-37.055			-4.117
127501.000			-37.053			-4.117
127600.000			-37.053			-4.117
127701.000			-37.053			-4.117
127802.000			-37.052			-4.117
127900.000			-37.051			-4.117
128000.000			-37.051			-4.117
128101.000			-37.051			-4.117
128200.000			-37.050			-4.117
128300.000			-37.049			-4.117
128401.000			-37.049			-4.117
128501.000			-37.049			-4.117
128601.000			-37.047			-4.116
128701.000			-37.046			-4.116
128800.000			-37.045			-4.116
128900.000			-37.044			-4.116
129001.000			-37.043			-4.116
129100.000			-37.042			-4.116
129200.000			-37.042			-4.116
129302.000			-37.041			-4.116
129401.000			-37.040			-4.116
129501.000			-37.040			-4.116
129601.000			-37.039			-4.115
129700.000			-37.038			-4.115
129800.000			-37.037			-4.115
129901.000			-37.036			-4.115
130000.000			-37.035			-4.115
130100.000			-37.035			-4.115
130202.000			-37.034			-4.115
130301.000			-37.034			-4.115
130400.000			-37.034			-4.115
130501.000			-37.033			-4.115
130600.000			-37.032			-4.115
130701.000			-37.030			-4.114
130800.000			-37.030			-4.114
130900.000			-37.030			-4.114
131002.000			-37.029			-4.114
131101.000			-37.028			-4.114
131200.000			-37.027			-4.114
131301.000			-37.027			-4.114
131400.000			-37.026			-4.114
131500.000			-37.026			-4.114
131601.000			-37.025			-4.114
131700.000			-37.024			-4.114
131800.000			-37.023			-4.114
131902.000			-37.023			-4.114
132001.000			-37.022			-4.114
132100.000			-37.021			-4.113
132201.000			-37.020			-4.113
132300.000			-37.019			-4.113
132400.000			-37.020			-4.113
132501.000			-37.018			-4.113
132600.000			-37.017			-4.113
132700.000			-37.017			-4.113
132802.000			-37.016			-4.113
132901.000			-37.015			-4.113
133000.000			-37.013			-4.113
133101.000			-37.013			-4.113
133200.000			-37.012			-4.112
133300.000			-37.011			-4.112
133401.000			-37.011			-4.112
133500.000			-37.011			-4.112
133600.000			-37.010			-4.112
133702.000			-37.009			-4.112
133801.000			-37.009			-4.112
133901.000			-37.009			-4.112
134000.000			-37.007			-4.112
134100.000			-37.006			-4.112
134201.000			-37.006			-4.112
134300.000			-37.005			-4.112
134400.000			-37.003			-4.111
134501.000			-37.004			-4.112
134601.000			-37.003			-4.111
134701.000			-37.002			-4.111
134801.000			-37.002			-4.111
134900.000			-37.001			-4.111
135000.000			-37.001			-4.111
135101.000			-36.999			-4.111
135200.000			-36.998			-4.111
135300.000			-36.998			-4.111
135401.000			-36.997			-4.111
135501.000			-36.997			-4.111
135601.000			-36.996			-4.111
135702.000			-36.995			-4.111
135800.000			-36.993			-4.110
135900.000			-36.993			-4.110
136001.000			-36.993			-4.110
136100.000			-36.991			-4.110
136200.000			-36.992			-4.110
136301.000			-36.991			-4.110
136400.000			-36.990			-4.110
136501.000			-36.988			-4.110
136602.000			-36.988			-4.110
136701.000			-36.988			-4.110
136800.000			-36.987			-4.110
136901.000			-36.986			-4.110
137000.000			-36.985			-4.109
137101.000			-36.984			-4.109
137200.000			-36.985			-4.109
137300.000			-36.984			-4.109
137401.000			-36.984			-4.109
137501.000			-36.982			-4.109
137601.000			-36.982			-4.109
137702.000			-36.982			-4.109
137800.000			-36.981			-4.109
137900.000			-36.980			-4.109
138001.000			-36.980			-4.109
138100.000			-36.978			-4.109
138200.000			-36.977			-4.109
138301.000			-36.976			-4.108
138400.000			-36.976			-4.108
138500.000			-36.975			-4.108
138602.000			-36.975			-4.108
138701.000			-36.973			-4.108
138800.000			-36.973			-4.108
138901.000			-36.972			-4.108
139000.000			-36.972			-4.108
139100.000			-36.972			-4.108
139201.000			-36.970			-4.108
139300.000			-36.970			-4.108
139400.000			-36.969			-4.108
139502.000			-36.968			-4.108
139601.000			-36.968			-4.108
139701.000			-36.967			-4.107
139801.000			-36.966			-4.107
139900.000			-36.965			-4.107
140000.000			-36.964			-4.107
140101.000			-36.965			-4.107
140200.000			-36.963			-4.107
140301.000			-36.964			-4.107
140400.000			-36.963			-4.107
140501.000			-36.962			-4.107
140602.000			-36.960			-4.107
140701.000			-36.960			-4.107
140800.000			-36.959			-4.107
140901.000			-36.957			-4.106
141000.000			-36.957			-4.106
141100.000			-36.957			-4.106
141201.000			-36.956			-4.106
141300.000			-36.955			-4.106
141400.000			-36.955			-4.106
141502.000			-36.955			-4.106
141601.000			-36.953			-4.106
141700.000			-36.953			-4.106
141801.000			-36.952			-4.106
141900.000			-36.952			-4.106
142000.000			-36.951			-4.106
142101.000			-36.950			-4.106
142200.000			-36.950			-4.106
142300.000			-36.949			-4.105
142402.000			-36.948			-4.105
142501.000			-36.947			-4.105
142601.000			-36.947			-4.105
142701.000			-36.946			-4.105
142800.000			-36.946			-4.105
142900.000			-36.945			-4.105
143001.000			-36.945			-4.105
143100.000			-36.943			-4.105
143200.000			-36.943			-4.105
143301.000			-36.944			-4.105
143401.000			-36.943			-4.105
143502.000			-36.943			-4.105
143600.000			-36.941			-4.105
143700.000			-36.939			-4.104
143801.000			-36.937			-4.104
143900.000			-36.937			-4.104
144000.000			-36.937			-4.104
144101.000			-36.937			-4.104
144200.000			-36.936			-4.104
144301.000			-36.936			-4.104
144402.000			-36.935			-4.104
144501.000			-36.934			-4.104
144600.000			-36.934			-4.104
144701.000			-36.933			-4.104
144800.000			-36.933			-4.104
144900.000			-36.933			-4.104
145001.000			-36.933			-4.104
145100.000			-36.931			-4.103
145200.000			-36.930			-4.103
145302.000			-36.931			-4.103
145401.000			-36.929			-4.103
145500.000			-36.928			-4.103
145601.000			-36.927			-4.103
145700.000			-36.927			-4.103
145800.000			-36.927			-4.103
145901.000			-36.927			-4.103
146000.000			-36.924			-4.103
146100.000			-36.923			-4.103
146202.000			-36.923			-4.103
146301.000			-36.923			-4.103
146401.000			-36.923			-4.103
146501.000			-36.922			-4.102
146600.000			-36.920			-4.102
146701.000			-36.920			-4.102
146800.000			-36.920			-4.102
146900.000			-36.920			-4.102
147001.000			-36.919			-4.102
147100.000			-36.919			-4.102
147201.000			-36.918			-4.102
147302.000			-36.917			-4.102
147400.000			-36.916			-4.102
147500.000			-36.915			-4.102
147601.000			-36.914			-4.102
147700.000			-36.914			-4.102
147800.000			-36.914			-4.102
147901.000			-36.913			-4.101
148000.000			-36.912			-4.101
148101.000			-36.912			-4.101
148202.000			-36.911			-4.101
148301.000			-36.910			-4.101
148400.000			-36.909			-4.101
148501.000			-36.909			-4.101
148600.000			-36.909			-4.101
148700.000			-36.908			-4.101
148801.000			-36.907			-4.101
148900.000			-36.905			-4.101
149000.000			-36.905			-4.101
149102.000			-36.904			-4.100
149201.000			-36.904			-4.100
149301.000			-36.903			-4.100
149401.000			-36.903			-4.100
149500.000			-36.903			-4.100
149600.000			-36.901			-4.100
149701.000			-36.901			-4.100
149800.000			-36.901			-4.100
149901.000			-36.900			-4.100
150000.000			-36.900			-4.100
150101.000			-36.899			-4.100
150202.000			-36.897			-4.100
150300.000			-36.897			-4.100
150400.000			-36.896			-4.100
150501.000			-36.896			-4.100
150600.000			-36.895			-4.099
150700.000			-36.895			-4.099
150801.000			-36.894			-4.099
150900.000			-36.894			-4.099
151000.000			-36.893			-4.099
151102.000			-36.892			-4.099
151201.000			-36.892			-4.099
151300.000			-36.891			-4.099
151401.000			-36.891			-4.099
151500.000			-36.890			-4.099
151600.000			-36.888			-4.099
151701.000			-36.887			-4.099
151800.000			-36.887			-4.099
151900.000			-36.886			-4.098
152002.000			-36.887			-4.099
152101.000			-36.886			-4.098
152201.000			-36.885			-4.098
152301.000			-36.884			-4.098
152400.000			-36.883			-4.098
152500.000			-36.883			-4.098
152601.000			-36.882			-4.098
152700.000			-36.881			-4.098
152800.000			-36.880			-4.098
152901.000			-36.880			-4.098
153001.000			-36.879			-4.098
153102.000			-36.879			-4.098
153201.000			-36.878			-4.098
153300.000			-36.878			-4.098
153401.000			-36.878			-4.098
153500.000			-36.877			-4.097
153600.000			-36.876			-4.097
153701.000			-36.876			-4.097
153800.000			-36.877			-4.097
153900.000			-36.875			-4.097
154002.000			-36.873			-4.097
154101.000			-36.873			-4.097
154201.000			-36.872			-4.097
154301.000			-36.871			-4.097
154400.000			-36.871			-4.097
154500.000			-36.870			-4.097
154601.000			-36.870			-4.097
154700.000			-36.870			-4.097
154800.000			-36.869			-4.097
154901.000			-36.868			-4.096
155001.000			-36.867			-4.096
155101.000			-36.867			-4.096
155201.000			-36.866			-4.096
155300.000			-36.866			-4.096
155400.000			-36.866			-4.096
155501.000			-36.866			-4.096
155600.000			-36.864			-4.096
155700.000			-36.863			-4.096
155801.000			-36.863			-4.096
155901.000			-36.863			-4.096
156001.000			-36.863			-4.096
156102.000			-36.861			-4.096
156200.000			-36.861			-4.096
156301.000			-36.859			-4.095
156400.000			-36.858			-4.095
156500.000			-36.858			-4.095
156601.000			-36.857			-4.095
156700.000			-36.857			-4.095
156800.000			-36.856			-4.095
156902.000			-36.857			-4.095
157001.000			-36.855			-4.095
157101.000			-36.855			-4.095
157201.000			-36.854			-4.095
157300.000			-36.853			-4.095
157400.000			-36.854			-4.095
157501.000			-36.853			-4.095
157600.000			-36.851			-4.095
157700.000			-36.852			-4.095
157801.000			-36.851			-4.095
157901.000			-36.850			-4.094
158001.000			-36.849			-4.094
158101.000			-36.848			-4.094
158200.000			-36.848			-4.094
158300.000			-36.847			-4.094
158401.000			-36.848			-4.094
158500.000			-36.847			-4.094
158600.000			-36.846			-4.094
158701.000			-36.845			-4.094
158801.000			-36.844			-4.094
158901.000			-36.844			-4.094
159002.000			-36.844			-4.094
159100.000			-36.844			-4.094
159200.000			-36.842			-4.094
159301.000			-36.841			-4.093
159400.000			-36.841			-4.093
159501.000			-36.841			-4.093
159600.000			-36.841			-4.093
159700.000			-36.839			-4.093
159802.000			-36.839			-4.093
159901.000			-36.838			-4.093
160001.000			-36.837			-4.093
160101.000			-36.837			-4.093
160200.000			-36.836			-4.093
160300.000			-36.836			-4.093
160401.000			-36.837			-4.093
160500.000			-36.836			-4.093
160600.000			-36.835			-4.093
160701.000			-36.833			-4.093
160801.000			-36.833			-4.093
160901.000			-36.832			-4.092
161001.000			-36.832			-4.092
161100.000			-36.832			-4.092
161200.000			-36.831			-4.092
161301.000			-36.830			-4.092
161400.000			-36.829			-4.092
161500.000			-36.828			-4.092
161601.000			-36.828			-4.092
161701.000			-36.827			-4.092
161801.000			-36.827			-4.092
161902.000			-36.826			-4.092
162000.000			-36.826			-4.092
162100.000			-36.824			-4.092
162201.000			-36.824			-4.092
162300.000			-36.823			-4.091
162400.000			-36.823			-4.091
162501.000			-36.823			-4.091
162600.000			-36.823			-4.091
162702.000			-36.821			-4.091
162801.000			-36.821			-4.091
162900.000			-36.820			-4.091
163001.000			-36.819			-4.091
163100.000			-36.819			-4.091
163200.000			-36.819			-4.091
163301.000			-36.818			-4.091
163400.000			-36.817			-4.091
163500.000			-36.816			-4.091
163602.000			-36.815			-4.091
163701.000			-36.814			-4.090
163801.000			-36.814			-4.090
163901.000			-36.813			-4.090
164000.000			-36.812			-4.090
164100.000			-36.813			-4.090
164201.000			-36.811			-4.090
164300.000			-36.811			-4.090
164400.000			-36.811			-4.090
164502.000			-36.808			-4.090
164601.000			-36.809			-4.090
164701.000			-36.809			-4.090
164801.000			-36.807			-4.090
164900.000			-36.806			-4.090
165000.000			-36.806			-4.090
165101.000			-36.805			-4.089
165200.000			-36.805			-4.089
165300.000			-36.804			-4.089
165401.000			-36.804			-4.089
165501.000			-36.803			-4.089
165601.000			-36.802			-4.089
165701.000			-36.803			-4.089
165800.000			-36.802			-4.089
165901.000			-36.800			-4.089
166000.000			-36.800			-4.089
166100.000			-36.800			-4.089
166201.000			-36.799			-4.089
166300.000			-36.798			-4.089
166400.000			-36.798			-4.089
166502.000			-36.798			-4.089
166601.000			-36.798			-4.089
166700.000			-36.797			-4.089
166801.000			-36.796			-4.088
166900.000			-36.797			-4.089
167000.000			-36.794			-4.088
167101.000			-36.794			-4.088
167200.000			-36.794			-4.088
167300.000			-36.794			-4.088
167401.000			-36.793			-4.088
167501.000			-36.793			-4.088
167601.000			-36.793			-4.088
167701.000			-36.793			-4.088
167800.000			-36.790			-4.088
167900.000			-36.791			-4.088
168001.000			-36.791			-4.088
168100.000			-36.790			-4.088
168200.000			-36.790			-4.088
168301.000			-36.789			-4.088
168401.000			-36.788			-4.088
168501.000			-36.787			-4.087
168602.000			-36.788			-4.088
168700.000			-36.787			-4.087
168800.000			-36.786			-4.087
168901.000			-36.785			-4.087
169000.000			-36.784			-4.087
169101.000			-36.785			-4.087
169200.000			-36.783			-4.087
169300.000			-36.782			-4.087
169401.000			-36.783			-4.087
169501.000			-36.783			-4.087
169601.000			-36.782			-4.087
169701.000			-36.782			-4.087
169800.000			-36.781			-4.087
169900.000			-36.779			-4.087
170001.000			-36.778			-4.086
170100.000			-36.778			-4.086
170200.000			-36.779			-4.087
170301.000			-36.778			-4.086
170400.000			-36.777			-4.086
170501.000			-36.777			-4.086
170602.000			-36.776			-4.086
170700.000			-36.775			-4.086
170800.000			-36.774			-4.086
170901.000			-36.774			-4.086
171000.000			-36.773			-4.086
171100.000			-36.772			-4.086
171201.000			-36.772			-4.086
171300.000			-36.772			-4.086
171401.000			-36.771			-4.086
171502.000			-36.771			-4.086
171601.000			-36.771			-4.086
171700.000			-36.770			-4.086
171801.000			-36.769			-4.085
171900.000			-36.769			-4.085
172000.000			-36.768			-4.085
172101.000			-36.767			-4.085
172200.000			-36.768			-4.085
172301.000			-36.767			-4.085
172401.000			-36.766			-4.085
172501.000			-36.765			-4.085
172601.000			-36.765			-4.085
172700.000			-36.765			-4.085
172800.000			-36.764			-4.085
172901.000			-36.762			-4.085
173000.000			-36.762			-4.085
173100.000			-36.762			-4.085
173201.000			-36.762			-4.085
173301.000			-36.762			-4.085
173401.000			-36.761			-4.085
173502.000			-36.759			-4.084
173600.000			-36.758			-4.084
173700.000			-36.758			-4.084
173801.000			-36.759			-4.084
173900.000			-36.758			-4.084
174000.000			-36.758			-4.084
174101.000			-36.757			-4.084
174200.000			-36.756			-4.084
174301.000			-36.754			-4.084
174402.000			-36.755			-4.084
174501.000			-36.755			-4.084
174600.000			-36.755			-4.084
174701.000			-36.755			-4.084
174800.000			-36.753			-4.084
174900.000			-36.753			-4.084
175001.000			-36.751			-4.083
175100.000			-36.751			-4.083
175200.000			-36.751			-4.083
175302.000			-36.751			-4.083
175401.000			-36.750			-4.083
175501.000			-36.750			-4.083
175600.000			-36.749			-4.083
175700.000			-36.748			-4.083
175801.000			-36.746			-4.083
175900.000			-36.747			-4.083
176000.000			-36.746			-4.083
176101.000			-36.746			-4.083
176201.000			-36.747			-4.083
176301.000			-36.746			-4.083
176402.000			-36.745			-4.083
176500.000			-36.743			-4.083
176600.000			-36.743			-4.083
176701.000			-36.742			-4.082
176800.000			-36.742			-4.082
176900.000			-36.742			-4.082
177001.000			-36.740			-4.082
177100.000			-36.740			-4.082
177201.000			-36.739			-4.082
177302.000			-36.739			-4.082
177401.000			-36.738			-4.082
177500.000			-36.738			-4.082
177601.000			-36.736			-4.082
177700.000			-36.737			-4.082
177800.000			-36.736			-4.082
177901.000			-36.734			-4.082
178000.000			-36.735			-4.082
178100.000			-36.733			-4.081
178202.000			-36.733			-4.081
178301.000			-36.733			-4.081
178401.000			-36.733			-4.081
178501.000			-36.732			-4.081
178600.000			-36.732			-4.081
178701.000			-36.730			-4.081
178800.000			-36.731			-4.081
178900.000			-36.730			-4.081
179001.000			-36.729			-4.081
179100.000			-36.728			-4.081
179201.000			-36.727			-4.081
179302.000			-36.727			-4.081
179401.000			-36.726			-4.081
179500.000			-36.726			-4.081
179601.000			-36.725			-4.081
179700.000			-36.725			-4.081
179800.000			-36.725			-4.081
179901.000			-36.724			-4.080
180000.000			-36.723			-4.080
180100.000			-36.723			-4.080
180202.000			-36.722			-4.080
180301.000			-36.721			-4.080
180400.000			-36.720			-4.080
180501.000			-36.721			-4.080
180600.000			-36.720			-4.080
180700.000			-36.719			-4.080
180801.000			-36.718			-4.080
180900.000			-36.717			-4.080
181000.000			-36.717			-4.080
181102.000			-36.716			-4.080
181201.000			-36.717			-4.080
181301.000			-36.716			-4.080
181401.000			-36.716			-4.080
181500.000			-36.715			-4.079
181600.000			-36.715			-4.079
181701.000			-36.714			-4.079
181800.000			-36.713			-4.079
181901.000			-36.713			-4.079
182000.000			-36.712			-4.079
182101.000			-36.712			-4.079
182202.000			-36.712			-4.079
182300.000			-36.710			-4.079
182400.000			-36.710			-4.079
182501.000			-36.709			-4.079
182600.000			-36.709			-4.079
182700.000			-36.708			-4.079
182801.000			-36.707			-4.079
182900.000			-36.707			-4.079
183001.000			-36.705			-4.078
183102.000			-36.706			-4.078
183201.000			-36.706			-4.078
183300.000			-36.706			-4.078
183401.000			-36.706			-4.078
183500.000			-36.704			-4.078
183600.000			-36.704			-4.078
183701.000			-36.704			-4.078
183800.000			-36.703			-4.078
183901.000			-36.702			-4.078
184002.000			-36.701			-4.078
184101.000			-36.701			-4.078
184200.000			-36.701			-4.078
184301.000			-36.701			-4.078
184400.000			-36.700			-4.078
184500.000			-36.700			-4.078
184601.000			-36.699			-4.078
184700.000			-36.699			-4.078
184800.000			-36.698			-4.078
184902.000			-36.697			-4.077
185001.000			-36.697			-4.077
185102.000			-36.696			-4.077
185200.000			-36.695			-4.077
185300.000			-36.694			-4.077
185401.000			-36.696			-4.077
185500.000			-36.695			-4.077
185600.000			-36.693			-4.077
185701.000			-36.693			-4.077
185800.000			-36.694			-4.077
185901.000			-36.692			-4.077
186002.000			-36.692			-4.077
186101.000			-36.692			-4.077
186200.000			-36.692			-4.077
186301.000			-36.691			-4.077
186400.000			-36.690			-4.077
186500.000			-36.690			-4.077
186601.000			-36.690			-4.077
186700.000			-36.688			-4.076
186800.000			-36.689			-4.077
186901.000			-36.688			-4.076
187001.000			-36.687			-4.076
187101.000			-36.686			-4.076
187201.000			-36.686			-4.076
187300.000			-36.685			-4.076
187400.000			-36.684			-4.076
187501.000			-36.685			-4.076
187600.000			-36.685			-4.076
187700.000			-36.684			-4.076
187801.000			-36.683			-4.076
187901.000			-36.683			-4.076
188001.000			-36.683			-4.076
188102.000			-36.681			-4.076
188200.000			-36.681			-4.076
188301.000			-36.681			-4.076
188400.000			-36.680			-4.076
188500.000			-36.679			-4.075
188601.000			-36.679			-4.075
188700.000			-36.678			-4.075
188800.000			-36.678			-4.075
188901.000			-36.678			-4.075
189001.000			-36.677			-4.075
189101.000			-36.676			-4.075
189201.000			-36.676			-4.075
189300.000			-36.675			-4.075
189400.000			-36.675			-4.075
189501.000			-36.675			-4.075
189600.000			-36.675			-4.075
189700.000			-36.673			-4.075
189801.000			-36.673			-4.075
189900.000			-36.672			-4.075
190001.000			-36.671			-4.075
190102.000			-36.671			-4.075
190200.000			-36.671			-4.075
190300.000			-36.670			-4.074
190401.000			-36.670			-4.074
190500.000			-36.669			-4.074
190600.000			-36.668			-4.074
190701.000			-36.668			-4.074
190800.000			-36.667			-4.074
190901.000			-36.667			-4.074
191002.000			-36.666			-4.074
191101.000			-36.666			-4.074
191200.000			-36.666			-4.074
191301.000			-36.666			-4.074
191400.000			-36.664			-4.074
191501.000			-36.663			-4.074
191600.000			-36.663			-4.074
191700.000			-36.662			-4.074
191801.000			-36.663			-4.074
191901.000			-36.662			-4.074
192001.000			-36.662			-4.074
192101.000			-36.662			-4.074
192200.000			-36.660			-4.073
192300.000			-36.660			-4.073
192401.000			-36.660			-4.073
192500.000			-36.659			-4.073
192600.000			-36.658			-4.073
192701.000			-36.657			-4.073
192801.000			-36.657			-4.073
192901.000			-36.657			-4.073
193002.000			-36.656			-4.073
193100.000			-36.656			-4.073
193200.000			-36.657			-4.073
193301.000			-36.656			-4.073
193400.000			-36.655			-4.073
193500.000			-36.654			-4.073
193601.000			-36.653			-4.073
193700.000			-36.653			-4.073
193801.000			-36.653			-4.073
193902.000			-36.651			-4.072
194001.000			-36.652			-4.072
194100.000			-36.652			-4.072
194201.000			-36.651			-4.072
194300.000			-36.649			-4.072
194400.000			-36.650			-4.072
194501.000			-36.650			-4.072
194600.000			-36.649			-4.072
194701.000			-36.649			-4.072
194801.000			-36.648			-4.072
194901.000			-36.647			-4.072
195002.000			-36.646			-4.072
195100.000			-36.646			-4.072
195200.000			-36.646			-4.072
195301.000			-36.645			-4.072
195400.000			-36.645			-4.072
195500.000			-36.645			-4.072
195601.000			-36.644			-4.072
195700.000			-36.644			-4.072
195801.000			-36.644			-4.072
195902.000			-36.644			-4.072
196000.000			-36.643			-4.071
196100.000			-36.642			-4.071
196201.000			-36.641			-4.071
196300.000			-36.641			-4.071
196400.000			-36.641			-4.071
196501.000			-36.641			-4.071
196600.000			-36.640			-4.071
196701.000			-36.640			-4.071
196802.000			-36.638			-4.071
196901.000			-36.638			-4.071
197000.000			-36.636			-4.071
197101.000			-36.636			-4.071
197200.000			-36.637			-4.071
197300.000			-36.636			-4.071
197401.000			-36.635			-4.071
197500.000			-36.636			-4.071
197600.000			-36.635			-4.071
197702.000			-36.634			-4.070
197801.000			-36.634			-4.070
197902.000			-36.634			-4.070
198000.000			-36.632			-4.070
198100.000			-36.632			-4.070
198201.000			-36.631			-4.070
198300.000			-36.630			-4.070
198400.000			-36.630			-4.070
198501.000			-36.630			-4.070
198600.000			-36.630			-4.070
198701.000			-36.629			-4.070
198802.000			-36.629			-4.070
198901.000			-36.628			-4.070
199000.000			-36.627			-4.070
199101.000			-36.627			-4.070
199200.000			-36.626			-4.070
199300.000			-36.626			-4.070
199401.000			-36.626			-4.070
199500.000			-36.626			-4.070
199600.000			-36.625			-4.069
199702.000			-36.624			-4.069
199801.000			-36.623			-4.069
199901.000			-36.623			-4.069
200001.000			-36.623			-4.069
200100.000			-36.623			-4.069
200200.000			-36.622			-4.069
200301.000			-36.621			-4.069
200400.000			-36.620			-4.069
200500.000			-36.620			-4.069
200601.000			-36.618			-4.069
200701.000			-36.619			-4.069
200801.000			-36.619			-4.069
200901.000			-36.618			-4.069
201000.000			-36.617			-4.069
201101.000			-36.616			-4.068
201200.000			-36.617			-4.069
201300.000			-36.617			-4.069
201401.000			-36.617			-4.069
201500.000			-36.617			-4.069
201601.000			-36.616			-4.068
201702.000			-36.615			-4.068
201800.000			-36.614			-4.068
201900.000			-36.612			-4.068
202001.000			-36.613			-4.068
202100.000			-36.613			-4.068
202200.000			-36.612			-4.068
202301.000			-36.612			-4.068
202400.000			-36.611			-4.068
202501.000			-36.611			-4.068
202602.000			-36.611			-4.068
202700.000			-36.610			-4.068
202800.000			-36.609			-4.068
202901.000			-36.609			-4.068
203000.000			-36.608			-4.068
203100.000			-36.608			-4.068
203201.000			-36.608			-4.068
203300.000			-36.607			-4.067
203401.000			-36.606			-4.067
203502.000			-36.606			-4.067
203601.000			-36.606			-4.067
203700.000			-36.605			-4.067
203801.000			-36.605			-4.067
203900.000			-36.604			-4.067
204000.000			-36.604			-4.067
204101.000			-36.602			-4.067
204200.000			-36.603			-4.067
204302.000			-36.603			-4.067
204401.000			-36.602			-4.067
204501.000			-36.602			-4.067
204601.000			-36.602			-4.067
204700.000			-36.601			-4.067
204800.000			-36.599			-4.067
204901.000			-36.599			-4.067
205000.000			-36.599			-4.067
205100.000			-36.598			-4.066
205201.000			-36.598			-4.066
205301.000			-36.598			-4.066
205401.000			-36.597			-4.066
205501.000			-36.596			-4.066
205600.000			-36.594			-4.066
205700.000			-36.594			-4.066
205801.000			-36.594			-4.066
205900.000			-36.594			-4.066
206000.000			-36.594			-4.066
206101.000			-36.593			-4.066
206201.000			-36.593			-4.066
206301.000			-36.592			-4.066
206402.000			-36.592			-4.066
206500.000			-36.591			-4.066
206600.000			-36.592			-4.066
206701.000			-36.590			-4.066
206800.000			-36.590			-4.066
206900.000			-36.590			-4.066
207001.000			-36.589			-4.065
207101.000			-36.588			-4.065
207201.000			-36.589			-4.065
207302.000			-36.588			-4.065
207400.000			-36.588			-4.065
207501.000			-36.588			-4.065
207600.000			-36.586			-4.065
207700.000			-36.585			-4.065
207801.000			-36.585			-4.065
207900.000			-36.584			-4.065
208000.000			-36.584			-4.065
208102.000			-36.584			-4.065
208201.000			-36.584			-4.065
208301.000			-36.584			-4.065
208401.000			-36.582			-4.065
208500.000			-36.581			-4.065
208600.000			-36.581			-4.065
208701.000			-36.580			-4.064
208800.000			-36.580			-4.064
208900.000			-36.580			-4.064
209001.000			-36.579			-4.064
209101.000			-36.579			-4.064
209201.000			-36.578			-4.064
209301.000			-36.578			-4.064
209400.000			-36.577			-4.064
209500.000			-36.578			-4.064
209601.000			-36.578			-4.064
209700.000			-36.576			-4.064
209800.000			-36.575			-4.064
209901.000			-36.574			-4.064
210001.000			-36.574			-4.064
210101.000			-36.575			-4.064
210202.000			-36.574			-4.064
210300.000			-36.573			-4.064
210400.000			-36.573			-4.064
210501.000			-36.572			-4.064
210600.000			-36.572			-4.064
210701.000			-36.572			-4.064
210800.000			-36.571			-4.063
210900.000			-36.570			-4.063
211002.000			-36.570			-4.063
211101.000			-36.571			-4.063
211200.000			-36.569			-4.063
211301.000			-36.569			-4.063
211400.000			-36.569			-4.063
211500.000			-36.568			-4.063
211601.000			-36.567			-4.063
211700.000			-36.566			-4.063
211800.000			-36.566			-4.063
211902.000			-36.566			-4.063
212001.000			-36.565			-4.063
212100.000			-36.566			-4.063
212201.000			-36.566			-4.063
212300.000			-36.564			-4.063
212400.000			-36.563			-4.063
212501.000			-36.564			-4.063
212600.000			-36.564			-4.063
212700.000			-36.564			-4.063
212802.000			-36.562			-4.062
212901.000			-36.561			-4.062
213001.000			-36.561			-4.062
213101.000			-36.560			-4.062
213200.000			-36.559			-4.062
213300.000			-36.559			-4.062
213401.000			-36.560			-4.062
213500.000			-36.559			-4.062
213600.000			-36.559			-4.062
213702.000			-36.558			-4.062
213801.000			-36.558			-4.062
213902.000			-36.556			-4.062
214000.000			-36.556			-4.062
214100.000			-36.556			-4.062
214201.000			-36.556			-4.062
214300.000			-36.556			-4.062
214400.000			-36.556			-4.062
214501.000			-36.555			-4.062
214600.000			-36.554			-4.062
214701.000			-36.554			-4.062
214802.000			-36.553			-4.061
214900.000			-36.552			-4.061
215000.000			-36.553			-4.061
215101.000			-36.552			-4.061
215200.000			-36.551			-4.061
215300.000			-36.551			-4.061
215401.000			-36.551			-4.061
215500.000			-36.549			-4.061
215601.000			-36.549			-4.061
215702.000			-36.549			-4.061
215800.000			-36.549			-4.061
215900.000			-36.549			-4.061
216001.000			-36.549			-4.061
216100.000			-36.547			-4.061
216200.000			-36.546			-4.061
216301.000			-36.547			-4.061
216400.000			-36.547			-4.061
216501.000			-36.546			-4.061
216602.000			-36.546			-4.061
216701.000			-36.546			-4.061
216800.000			-36.544			-4.060
216901.000			-36.544			-4.060
217000.000			-36.545			-4.061
217101.000			-36.544			-4.060
217200.000			-36.543			-4.060
217300.000			-36.542			-4.060
217402.000			-36.543			-4.060
217501.000			-36.543			-4.060
217601.000			-36.542			-4.060
217701.000			-36.540			-4.060
217800.000			-36.541			-4.060
217900.000			-36.540			-4.060
218001.000			-36.539			-4.060
218100.000			-36.539			-4.060
218200.000			-36.538			-4.060
218301.000			-36.538			-4.060
218401.000			-36.538			-4.060
218501.000			-36.537			-4.060
218601.000			-36.536			-4.060
218700.000			-36.536			-4.060
218800.000			-36.536			-4.060
218901.000			-36.535			-4.059
219000.000			-36.536			-4.060
219100.000			-36.536			-4.060
219201.000			-36.535			-4.059
219301.000			-36.533			-4.059
219401.000			-36.533			-4.059
219502.000			-36.532			-4.059
219600.000			-36.532			-4.059
219700.000			-36.532			-4.059
219801.000			-36.532			-4.059
219900.000			-36.531			-4.059
220000.000			-36.530			-4.059
220101.000			-36.530			-4.059
220201.000			-36.529			-4.059
220302.000			-36.529			-4.059
220401.000			-36.529			-4.059
220500.000			-36.530			-4.059
220601.000			-36.529			-4.059
220700.000			-36.528			-4.059
220800.000			-36.526			-4.058
220901.000			-36.526			-4.058
221000.000			-36.527			-4.059
221100.000			-36.527			-4.059
221202.000			-36.526			-4.058
221301.000			-36.525			-4.058
221400.000			-36.525			-4.058
221501.000			-36.524			-4.058
221600.000			-36.524			-4.058
221700.000			-36.524			-4.058
221801.000			-36.524			-4.058
221900.000			-36.523			-4.058
222000.000			-36.522			-4.058
222102.000			-36.522			-4.058
222201.000			-36.522			-4.058
222300.000			-36.521			-4.058
222401.000			-36.521			-4.058
222500.000			-36.520			-4.058
222600.000			-36.520			-4.058
222701.000			-36.519			-4.058
222800.000			-36.518			-4.058
222900.000			-36.519			-4.058
223002.000			-36.518			-4.058
223101.000			-36.518			-4.058
223200.000			-36.518			-4.058
223301.000			-36.517			-4.057
223400.000			-36.515			-4.057
223501.000			-36.515			-4.057
223600.000			-36.515			-4.057
223700.000			-36.515			-4.057
223801.000			-36.514			-4.057
223901.000			-36.513			-4.057
224001.000			-36.513			-4.057
224102.000			-36.513			-4.057
224200.000			-36.512			-4.057
224300.000			-36.512			-4.057
224401.000			-36.512			-4.057
224500.000			-36.512			-4.057
224600.000			-36.511			-4.057
224701.000			-36.511			-4.057
224801.000			-36.512			-4.057
224901.000			-36.511			-4.057
225001.000			-36.509			-4.057
225100.000			-36.509			-4.057
225200.000			-36.509			-4.057
225301.000			-36.509			-4.057
225400.000			-36.508			-4.056
225500.000			-36.506			-4.056
225601.000			-36.506			-4.056
225701.000			-36.508			-4.056
225801.000			-36.507			-4.056
225902.000			-36.505			-4.056
226000.000			-36.505			-4.056
226100.000			-36.505			-4.056
226201.000			-36.505			-4.056
226300.000			-36.505			-4.056
226400.000			-36.505			-4.056
226501.000			-36.504			-4.056
226600.000			-36.502			-4.056
226702.000			-36.503			-4.056
226801.000			-36.502			-4.056
226900.000			-36.502			-4.056
227001.000			-36.501			-4.056
227100.000			-36.501			-4.056
227200.000			-36.501			-4.056
227301.000			-36.501			-4.056
227400.000			-36.500			-4.056
227500.000			-36.499			-4.055
227602.000			-36.498			-4.055
227701.000			-36.499			-4.055
227801.000			-36.499			-4.055
227901.000			-36.498			-4.055
228000.000			-36.498			-4.055
228100.000			-36.496			-4.055
228201.000			-36.497			-4.055
228300.000			-36.496			-4.055
228400.000			-36.496			-4.055
228501.000			-36.495			-4.055
228601.000			-36.495			-4.055
228701.000			-36.495			-4.055
228801.000			-36.495			-4.055
228900.000			-36.495			-4.055
229000.000			-36.494			-4.055
229101.000			-36.493			-4.055
229200.000			-36.493			-4.055
229300.000			-36.493			-4.055
229401.000			-36.493			-4.055
229501.000			-36.492			-4.055
229601.000			-36.492			-4.055
229702.000			-36.492			-4.055
229800.000			-36.491			-4.055
229901.000			-36.490			-4.054
230000.000			-36.490			-4.054
230100.000			-36.490			-4.054
230201.000			-36.489			-4.054
230300.000			-36.488			-4.054
230400.000			-36.488			-4.054
230502.000			-36.488			-4.054
230601.000			-36.487			-4.054
230700.000			-36.487			-4.054
230801.000			-36.486			-4.054
230900.000			-36.486			-4.054
231000.000			-36.485			-4.054
231101.000			-36.485			-4.054
231200.000			-36.485			-4.054
231300.000			-36.486			-4.054
231402.000			-36.486			-4.054
231501.000			-36.485			-4.054
231601.000			-36.483			-4.054
231701.000			-36.483			-4.054
231800.000			-36.483			-4.054
231900.000			-36.483			-4.054
232001.000			-36.483			-4.054
232100.000			-36.482			-4.054
232200.000			-36.481			-4.053
232301.000			-36.482			-4.054
232401.000			-36.480			-4.053
232501.000			-36.479			-4.053
232601.000			-36.479			-4.053
232700.000			-36.479			-4.053
232800.000			-36.479			-4.053
232901.000			-36.479			-4.053
233000.000			-36.478			-4.053
233101.000			-36.478			-4.053
233200.000			-36.478			-4.053
233301.000			-36.477			-4.053
233402.000			-36.476			-4.053
233501.000			-36.476			-4.053
233600.000			-36.475			-4.053
233701.000			-36.475			-4.053
233800.000			-36.474			-4.053
233900.000			-36.474			-4.053
234001.000			-36.473			-4.053
234100.000			-36.473			-4.053
234200.000			-36.473			-4.053
234302.000			-36.473			-4.053
234401.000			-36.473			-4.053
234500.000			-36.472			-4.052
234601.000			-36.471			-4.052
234700.000			-36.471			-4.052
234800.000			-36.470			-4.052
234901.000			-36.471			-4.052
235000.000			-36.470			-4.052
235100.000			-36.469			-4.052
235202.000			-36.469			-4.052
235301.000			-36.467			-4.052
235401.000			-36.468			-4.052
235501.000			-36.468			-4.052
235600.000			-36.466			-4.052
235700.000			-36.466			-4.052
235801.000			-36.467			-4.052
235900.000			-36.466			-4.052
236000.000			-36.466			-4.052
236101.000			-36.464			-4.052
236201.000			-36.463			-4.051
236302.000			-36.463			-4.051
236400.000			-36.464			-4.052
236500.000			-36.464			-4.052
236601.000			-36.464			-4.052
236700.000			-36.463			-4.051
236800.000			-36.462			-4.051
236901.000			-36.461			-4.051
237000.000			-36.460			-4.051
237101.000			-36.461			-4.051
237202.000			-36.459			-4.051
237301.000			-36.460			-4.051
237400.000			-36.459			-4.051
237501.000			-36.457			-4.051
237600.000			-36.458			-4.051
237700.000			-36.457			-4.051
237801.000			-36.456			-4.051
237900.000			-36.456			-4.051
238000.000			-36.456			-4.051
238102.000			-36.458			-4.051
238201.000			-36.456			-4.051
238300.000			-36.455			-4.051
238401.000			-36.455			-4.051
238500.000			-36.455			-4.051
238600.000			-36.454			-4.050
238701.000			-36.454			-4.050
238800.000			-36.454			-4.050
238900.000			-36.453			-4.050
239002.000			-36.453			-4.050
239101.000			-36.453			-4.050
239201.000			-36.452			-4.050
239301.000			-36.452			-4.050
239400.000			-36.450			-4.050
239501.000			-36.451			-4.050
239600.000			-36.450			-4.050
239700.000			-36.450			-4.050
239801.000			-36.450			-4.050
239900.000			-36.450			-4.050
240001.000			-36.449			-4.050
240102.000			-36.448			-4.050
240201.000			-36.447			-4.050
240300.000			-36.448			-4.050
240401.000			-36.447			-4.050
240500.000			-36.446			-4.050
240600.000			-36.446			-4.050
240701.000			-36.446			-4.050
240800.000			-36.446			-4.050
240901.000			-36.446			-4.050
241002.000			-36.445			-4.049
241101.000			-36.444			-4.049
241200.000			-36.443			-4.049
241301.000			-36.443			-4.049
241400.000			-36.442			-4.049
241500.000			-36.442			-4.049
241601.000			-36.443			-4.049
241700.000			-36.441			-4.049
241801.000			-36.441			-4.049
241902.000			-36.441			-4.049
242001.000			-36.440			-4.049
242100.000			-36.439			-4.049
242201.000			-36.440			-4.049
242300.000			-36.440			-4.049
242400.000			-36.440			-4.049
242501.000			-36.438			-4.049
242600.000			-36.438			-4.049
242701.000			-36.437			-4.049
242801.000			-36.435			-4.048
242901.000			-36.436			-4.048
243001.000			-36.436			-4.048
243100.000			-36.435			-4.048
243200.000			-36.435			-4.048
243301.000			-36.435			-4.048
243400.000			-36.434			-4.048
243500.000			-36.433			-4.048
243601.000			-36.433			-4.048
243701.000			-36.433			-4.048
243801.000			-36.432			-4.048
243901.000			-36.432			-4.048
244000.000			-36.432			-4.048
244100.000			-36.430			-4.048
244201.000			-36.430			-4.048
244300.000			-36.430			-4.048
244400.000			-36.430			-4.048
244501.000			-36.429			-4.048
244601.000			-36.429			-4.048
244701.000			-36.429			-4.048
244802.000			-36.428			-4.048
244900.000			-36.428			-4.048
245000.000			-36.428			-4.048
245101.000			-36.427			-4.047
245200.000			-36.427			-4.047
245300.000			-36.427			-4.047
245401.000			-36.426			-4.047
245500.000			-36.426			-4.047
245601.000			-36.426			-4.047
245702.000			-36.425			-4.047
245801.000			-36.424			-4.047
245901.000			-36.423			-4.047
246000.000			-36.424			-4.047
246100.000			-36.424			-4.047
246201.000			-36.422			-4.047
246300.000			-36.422			-4.047
246400.000			-36.422			-4.047
246502.000			-36.422			-4.047
246601.000			-36.421			-4.047
246701.000			-36.421			-4.047
246801.000			-36.421			-4.047
246900.000			-36.420			-4.047
247000.000			-36.420			-4.047
247101.000			-36.419			-4.047
247200.000			-36.419			-4.047
247300.000			-36.419			-4.047
247401.000			-36.417			-4.046
247501.000			-36.417			-4.046
247601.000			-36.417			-4.046
247701.000			-36.416			-4.046
247800.000			-36.416			-4.046
247900.000			-36.416			-4.046
248001.000			-36.414			-4.046
248100.000			-36.414			-4.046
248200.000			-36.415			-4.046
248301.000			-36.414			-4.046
248401.000			-36.413			-4.046
248501.000			-36.413			-4.046
248602.000			-36.412			-4.046
248700.000			-36.413			-4.046
248800.000			-36.413			-4.046
248901.000			-36.411			-4.046
249000.000			-36.411			-4.046
249101.000			-36.411			-4.046
249200.000			-36.411			-4.046
249300.000			-36.411			-4.046
249402.000			-36.411			-4.046
249501.000			-36.410			-4.046
249600.000			-36.410			-4.046
249701.000			-36.410			-4.046
249800.000			-36.409			-4.045
249900.000			-36.408			-4.045
250001.000			-36.407			-4.045
250100.000			-36.407			-4.045
250200.000			-36.408			-4.045
250302.000			-36.408			-4.045
250401.000			-36.407			-4.045
250500.000			-36.407			-4.045
250601.000			-36.406			-4.045
250700.000			-36.406			-4.045
250800.000			-36.404			-4.045
250901.000			-36.403			-4.045
251000.000			-36.404			-4.045
251100.000			-36.404			-4.045
251202.000			-36.404			-4.045
251301.000			-36.403			-4.045
251400.000			-36.401			-4.045
251501.000			-36.402			-4.045
251600.000			-36.402			-4.045
251700.000			-36.402			-4.045
251801.000			-36.402			-4.045
251900.000			-36.401			-4.045
252000.000			-36.401			-4.045
252102.000			-36.401			-4.045
252201.000			-36.400			-4.044
252301.000			-36.401			-4.045
252400.000			-36.399			-4.044
252500.000			-36.398			-4.044
252601.000			-36.398			-4.044
252700.000			-36.398			-4.044
252800.000			-36.397			-4.044
252901.000			-36.396			-4.044
253001.000			-36.396			-4.044
253101.000			-36.396			-4.044
253202.000			-36.396			-4.044
253300.000			-36.395			-4.044
253400.000			-36.395			-4.044
253501.000			-36.394			-4.044
253600.000			-36.394			-4.044
253700.000			-36.393			-4.044
253801.000			-36.393			-4.044
253900.000			-36.393			-4.044
254001.000			-36.392			-4.044
254102.000			-36.391			-4.043
254201.000			-36.391			-4.043
254300.000			-36.390			-4.043
254401.000			-36.390			-4.043
254500.000			-36.390			-4.043
254600.000			-36.390			-4.043
254701.000			-36.389			-4.043
254800.000			-36.389			-4.043
254900.000			-36.389			-4.043
255002.000			-36.388			-4.043
255101.000			-36.387			-4.043
255200.000			-36.388			-4.043
255301.000			-36.388			-4.043
255400.000			-36.387			-4.043
255501.000			-36.386			-4.043
255600.000			-36.386			-4.043
255700.000			-36.387			-4.043
255801.000			-36.385			-4.043
255900.000			-36.385			-4.043
256001.000			-36.385			-4.043
256102.000			-36.385			-4.043
256200.000			-36.384			-4.043
256300.000			-36.382			-4.042
256401.000			-36.383			-4.043
256500.000			-36.383			-4.043
256600.000			-36.381			-4.042
256701.000			-36.381			-4.042
256800.000			-36.381			-4.042
256901.000			-36.381			-4.042
257002.000			-36.380			-4.042
257101.000			-36.380			-4.042
257200.000			-36.381			-4.042
257301.000			-36.380			-4.042
257400.000			-36.379			-4.042
257500.000			-36.379			-4.042
257601.000			-36.378			-4.042
257700.000			-36.379			-4.042
257800.000			-36.378			-4.042
257902.000			-36.377			-4.042
258001.000			-36.378			-4.042
258101.000			-36.376			-4.042
258201.000			-36.377			-4.042
258300.000			-36.377			-4.042
258400.000			-36.376			-4.042
258501.000			-36.375			-4.042
258600.000			-36.375			-4.042
258701.000			-36.375			-4.042
258800.000			-36.374			-4.042
258901.000			-36.374			-4.042
259002.000			-36.373			-4.041
259101.000			-36.372			-4.041
259200.000			-36.373			-4.041
259301.000			-36.373			-4.041
259400.000			-36.373			-4.041
259500.000			-36.371			-4.041
259601.000			-36.370			-4.041
259700.000			-36.371			-4.041
259800.000			-36.370			-4.041
259902.000			-36.371			-4.041
260001.000			-36.371			-4.041
260100.000			-36.369			-4.041
260201.000			-36.369			-4.041
260300.000			-36.369			-4.041
260400.000			-36.368			-4.041
260501.000			-36.368			-4.041
260600.000			-36.369			-4.041
260700.000			-36.369			-4.041
260802.000			-36.367			-4.041
260901.000			-36.367			-4.041
261001.000			-36.367			-4.041
261101.000			-36.366			-4.041
261200.000			-36.366			-4.041
261300.000			-36.366			-4.041
261401.000			-36.365			-4.041
261500.000			-36.365			-4.041
261600.000			-36.364			-4.040
261701.000			-36.365			-4.041
261801.000			-36.365			-4.041
261902.000			-36.363			-4.040
262001.000			-36.363			-4.040
262100.000			-36.363			-4.040
262201.000			-36.362			-4.040
262300.000			-36.362			-4.040
262400.000			-36.363			-4.040
262501.000			-36.363			-4.040
262600.000			-36.362			-4.040
262701.000			-36.362			-4.040
262802.000			-36.361			-4.040
262901.000			-36.361			-4.040
263000.000			-36.360			-4.040
263101.000			-36.361			-4.040
263200.000			-36.361			-4.040
263300.000			-36.360			-4.040
263401.000			-36.359			-4.040
263500.000			-36.359			-4.040
263600.000			-36.359			-4.040
263702.000			-36.356			-4.040
263801.000			-36.356			-4.040
263900.000			-36.356			-4.040
264001.000			-36.357			-4.040
264100.000			-36.357			-4.040
264200.000			-36.357			-4.040
264301.000			-36.356			-4.040
264400.000			-36.355			-4.039
264500.000			-36.355			-4.039
264602.000			-36.354			-4.039
264701.000			-36.353			-4.039
264801.000			-36.353			-4.039
264901.000			-36.352			-4.039
265000.000			-36.353			-4.039
265101.000			-36.352			-4.039
265200.000			-36.352			-4.039
265300.000			-36.352			-4.039
265401.000			-36.352			-4.039
265501.000			-36.351			-4.039
265601.000			-36.350			-4.039
265702.000			-36.350			-4.039
265800.000			-36.351			-4.039
265900.000			-36.349			-4.039
266001.000			-36.349			-4.039
266100.000			-36.350			-4.039
266200.000			-36.350			-4.039
266301.000			-36.349			-4.039
266400.000			-36.348			-4.039
266501.000			-36.348			-4.039
266602.000			-36.347			-4.039
266701.000			-36.347			-4.039
266800.000			-36.346			-4.038
266901.000			-36.346			-4.038
267000.000			-36.345			-4.038
267100.000			-36.345			-4.038
267201.000			-36.345			-4.038
267300.000			-36.344			-4.038
267400.000			-36.344			-4.038
267502.000			-36.344			-4.038
267601.000			-36.343			-4.038
267700.000			-36.342			-4.038
267801.000			-36.343			-4.038
267900.000			-36.343			-4.038
268000.000			-36.341			-4.038
268101.000			-36.341			-4.038
268200.000			-36.341			-4.038
268301.000			-36.341			-4.038
268401.000			-36.340			-4.038
268501.000			-36.340			-4.038
268602.000			-36.340			-4.038
268700.000			-36.340			-4.038
268800.000			-36.341			-4.038
268901.000			-36.340			-4.038
269000.000			-36.338			-4.038
269100.000			-36.338			-4.038
269201.000			-36.337			-4.037
269301.000			-36.337			-4.037
269401.000			-36.337			-4.037
269502.000			-36.336			-4.037
269600.000			-36.336			-4.037
269700.000			-36.335			-4.037
269801.000			-36.336			-4.037
269900.000			-36.336			-4.037
270000.000			-36.334			-4.037
270101.000			-36.334			-4.037
270200.000			-36.335			-4.037
270301.000			-36.334			-4.037
270402.000			-36.333			-4.037
270501.000			-36.333			-4.037
270600.000			-36.332			-4.037
270701.000			-36.332			-4.037
270800.000			-36.332			-4.037
270900.000			-36.333			-4.037
271001.000			-36.330			-4.037
271100.000			-36.330			-4.037
271201.000			-36.331			-4.037
271302.000			-36.332			-4.037
271401.000			-36.331			-4.037
271501.000			-36.330			-4.037
271600.000			-36.329			-4.037
271700.000			-36.329			-4.037
271801.000			-36.330			-4.037
271900.000			-36.329			-4.037
272000.000			-36.328			-4.036
272101.000			-36.327			-4.036
272201.000			-36.327			-4.036
272301.000			-36.327			-4.036
272401.000			-36.326			-4.036
272500.000			-36.326			-4.036
272600.000			-36.325			-4.036
272701.000			-36.324			-4.036
272800.000			-36.325			-4.036
272900.000			-36.325			-4.036
273001.000			-36.324			-4.036
273101.000			-36.324			-4.036
273201.000			-36.324			-4.036
273301.000			-36.323			-4.036
273400.000			-36.323			-4.036
273500.000			-36.323			-4.036
273601.000			-36.323			-4.036
273700.000			-36.323			-4.036
273800.000			-36.321			-4.036
273901.000			-36.321			-4.036
274001.000			-36.320			-4.036
274101.000			-36.320			-4.036
274201.000			-36.320			-4.036
274300.000			-36.320			-4.036
274400.000			-36.319			-4.035
274501.000			-36.319			-4.035
274600.000			-36.319			-4.035
274701.000			-36.319			-4.035
274800.000			-36.319			-4.035
274901.000			-36.318			-4.035
275002.000			-36.318			-4.035
275101.000			-36.317			-4.035
275200.000			-36.318			-4.035
275301.000			-36.316			-4.035
275400.000			-36.316			-4.035
275500.000			-36.316			-4.035
275601.000			-36.315			-4.035
275700.000			-36.314			-4.035
275800.000			-36.314			-4.035
275902.000			-36.314			-4.035
276001.000			-36.313			-4.035
276100.000			-36.314			-4.035
276201.000			-36.312			-4.035
276300.000			-36.312			-4.035
276400.000			-36.313			-4.035
276501.000			-36.312			-4.035
276600.000			-36.312			-4.035
276700.000			-36.312			-4.035
276802.000			-36.311			-4.035
276901.000			-36.310			-4.034
277000.000			-36.311			-4.035
277101.000			-36.310			-4.034
277200.000			-36.309			-4.034
277300.000			-36.309			-4.034
277401.000			-36.309			-4.034
277500.000			-36.308			-4.034
277600.000			-36.308			-4.034
277702.000			-36.307			-4.034
277801.000			-36.307			-4.034
277902.000			-36.307			-4.034
278000.000			-36.307			-4.034
278100.000			-36.306			-4.034
278201.000			-36.305			-4.034
278300.000			-36.305			-4.034
278400.000			-36.305			-4.034
278501.000			-36.305			-4.034
278600.000			-36.304			-4.034
278701.000			-36.303			-4.034
278802.000			-36.304			-4.034
278901.000			-36.303			-4.034
279000.000			-36.302			-4.034
279101.000			-36.303			-4.034
279200.000			-36.302			-4.034
279300.000			-36.301			-4.033
279401.000			-36.300			-4.033
279500.000			-36.300			-4.033
279600.000			-36.300			-4.033
279702.000			-36.300			-4.033
279801.000			-36.299			-4.033
279900.000			-36.299			-4.033
280001.000			-36.298			-4.033
280100.000			-36.298			-4.033
280200.000			-36.298			-4.033
280301.000			-36.298			-4.033
280400.000			-36.298			-4.033
280500.000			-36.297			-4.033
280602.000			-36.297			-4.033
280701.000			-36.297			-4.033
280801.000			-36.297			-4.033
280901.000			-36.297			-4.033
281000.000			-36.297			-4.033
281101.000			-36.296			-4.033
281200.000			-36.295			-4.033
281300.000			-36.295			-4.033
281401.000			-36.295			-4.033
281500.000			-36.294			-4.033
281601.000			-36.294			-4.033
281702.000			-36.293			-4.033
281801.000			-36.293			-4.033
281900.000			-36.293			-4.033
282001.000			-36.293			-4.033
282100.000			-36.292			-4.032
282200.000			-36.293			-4.033
282301.000			-36.292			-4.032
282400.000			-36.291			-4.032
282500.000			-36.291			-4.032
282602.000			-36.291			-4.032
282701.000			-36.290			-4.032
282800.000			-36.290			-4.032
282901.000			-36.290			-4.032
283000.000			-36.290			-4.032
283100.000			-36.289			-4.032
283201.000			-36.289			-4.032
283300.000			-36.289			-4.032
283400.000			-36.289			-4.032
283502.000			-36.288			-4.032
283601.000			-36.288			-4.032
283700.000			-36.288			-4.032
283801.000			-36.288			-4.032
283900.000			-36.287			-4.032
284000.000			-36.287			-4.032
284101.000			-36.286			-4.032
284200.000			-36.286			-4.032
284301.000			-36.286			-4.032
284401.000			-36.285			-4.032
284501.000			-36.284			-4.032
284602.000			-36.283			-4.031
284700.000			-36.285			-4.032
284800.000			-36.284			-4.032
284901.000			-36.284			-4.032
285000.000			-36.284			-4.032
285100.000			-36.284			-4.032
285201.000			-36.283			-4.031
285300.000			-36.283			-4.031
285401.000			-36.283			-4.031
285502.000			-36.282			-4.031
285601.000			-36.282			-4.031
285700.000			-36.281			-4.031
285801.000			-36.281			-4.031
285900.000			-36.281			-4.031
286000.000			-36.280			-4.031
286101.000			-36.280			-4.031
286200.000			-36.279			-4.031
286300.000			-36.280			-4.031
286402.000			-36.280			-4.031
286501.000			-36.279			-4.031
286600.000			-36.278			-4.031
286701.000			-36.277			-4.031
286800.000			-36.277			-4.031
286900.000			-36.277			-4.031
287001.000			-36.277			-4.031
287100.000			-36.277			-4.031
287200.000			-36.276			-4.031
287302.000			-36.275			-4.031
287401.000			-36.275			-4.031
287502.000			-36.275			-4.031
287600.000			-36.276			-4.031
287700.000			-36.274			-4.030
287801.000			-36.274			-4.030
287900.000			-36.274			-4.030
288000.000			-36.274			-4.030
288101.000			-36.274			-4.030
288200.000			-36.273			-4.030
288301.000			-36.272			-4.030
288402.000			-36.271			-4.030
288501.000			-36.271			-4.030
288600.000			-36.271			-4.030
288701.000			-36.270			-4.030
288800.000			-36.270			-4.030
288900.000			-36.270			-4.030
289001.000			-36.270			-4.030
289100.000			-36.269			-4.030
289200.000			-36.270			-4.030
289302.000			-36.269			-4.030
289401.000			-36.268			-4.030
289500.000			-36.269			-4.030
289601.000			-36.268			-4.030
289700.000			-36.267			-4.030
289800.000			-36.268			-4.030
289901.000			-36.267			-4.030
290000.000			-36.266			-4.030
290100.000			-36.267			-4.030
290201.000			-36.266			-4.030
290301.000			-36.265			-4.029
290401.000			-36.266			-4.030
290501.000			-36.265			-4.029
290600.000			-36.264			-4.029
290701.000			-36.265			-4.029
290800.000			-36.265			-4.029
290900.000			-36.264			-4.029
291001.000			-36.263			-4.029
291100.000			-36.264			-4.029
291201.000			-36.262			-4.029
291302.000			-36.261			-4.029
291400.000			-36.262			-4.029
291500.000			-36.262			-4.029
291601.000			-36.261			-4.029
291700.000			-36.260			-4.029
291800.000			-36.261			-4.029
291901.000			-36.260			-4.029
292000.000			-36.260			-4.029
292101.000			-36.260			-4.029
292202.000			-36.260			-4.029
292300.000			-36.260			-4.029
292400.000			-36.259			-4.029
292501.000			-36.259			-4.029
292600.000			-36.258			-4.029
292700.000			-36.257			-4.029
292801.000			-36.256			-4.028
292900.000			-36.256			-4.028
293000.000			-36.256			-4.028
293102.000			-36.255			-4.028
293201.000			-36.255			-4.028
293300.000			-36.256			-4.028
293401.000			-36.256			-4.028
293500.000			-36.256			-4.028
293600.000			-36.255			-4.028
293701.000			-36.255			-4.028
293800.000			-36.254			-4.028
293901.000			-36.254			-4.028
294001.000			-36.254			-4.028
294101.000			-36.255			-4.028
294202.000			-36.254			-4.028
294300.000			-36.252			-4.028
294400.000			-36.253			-4.028
294501.000			-36.253			-4.028
294600.000			-36.252			-4.028
294700.000			-36.251			-4.028
294801.000			-36.251			-4.028
294900.000			-36.250			-4.028
295001.000			-36.250			-4.028
295102.000			-36.250			-4.028
295200.000			-36.250			-4.028
295300.000			-36.248			-4.028
295401.000			-36.249			-4.028
295500.000			-36.249			-4.028
295600.000			-36.248			-4.028
295701.000			-36.247			-4.027
295800.000			-36.247			-4.027
295901.000			-36.247			-4.027
296002.000			-36.246			-4.027
296101.000			-36.246			-4.027
296200.000			-36.246			-4.027
296301.000			-36.246			-4.027
296400.000			-36.245			-4.027
296500.000			-36.245			-4.027
296601.000			-36.244			-4.027
296700.000			-36.244			-4.027
296800.000			-36.244			-4.027
296902.000			-36.245			-4.027
297001.000			-36.244			-4.027
297102.000			-36.244			-4.027
297200.000			-36.242			-4.027
297300.000			-36.242			-4.027
297401.000			-36.243			-4.027
297500.000			-36.242			-4.027
297600.000			-36.242			-4.027
297701.000			-36.241			-4.027
297801.000			-36.241			-4.027
297901.000			-36.240			-4.027
298002.000			-36.240			-4.027
298100.000			-36.239			-4.027
298200.000			-36.239			-4.027
298301.000			-36.240			-4.027
298400.000			-36.239			-4.027
298500.000			-36.238			-4.026
298601.000			-36.238			-4.026
298700.000			-36.237			-4.026
298801.000			-36.236			-4.026
298902.000			-36.237			-4.026
299001.000			-36.238			-4.026
299100.000			-36.237			-4.026
299201.000			-36.236			-4.026
299300.000			-36.236			-4.026
299400.000			-36.236			-4.026
299501.000			-36.235			-4.026
299600.000			-36.235			-4.026
299700.000			-36.235			-4.026
299802.000			-36.234			-4.026
299901.000			-36.233			-4.026
