# Acquired on 29/01/2024 16:49:49 
# SPIDER: Creep_9mm_HM077x145x38AA-2
# CREEP MEASUREMENT

# time [ms]		force [N]		stiffness [N/mm]
1.000			-50.180			-5.576
105.000			-51.118			-5.680
204.000			-51.264			-5.696
304.000			-51.028			-5.670
405.000			-50.877			-5.653
503.000			-50.780			-5.642
604.000			-50.622			-5.625
705.000			-50.556			-5.617
804.000			-50.494			-5.610
905.000			-50.441			-5.605
1004.000			-50.391			-5.599
1104.000			-50.344			-5.594
1205.000			-50.300			-5.589
1304.000			-50.221			-5.580
1404.000			-50.184			-5.576
1505.000			-50.149			-5.572
1604.000			-50.116			-5.568
1703.000			-50.085			-5.565
1805.000			-50.056			-5.562
1904.000			-50.028			-5.559
2004.000			-49.973			-5.553
2105.000			-49.947			-5.550
2204.000			-49.922			-5.547
2304.000			-49.899			-5.544
2405.000			-49.877			-5.542
2504.000			-49.855			-5.539
2604.000			-49.832			-5.537
2705.000			-49.791			-5.532
2804.000			-49.771			-5.530
2903.000			-49.753			-5.528
3005.000			-49.734			-5.526
3104.000			-49.715			-5.524
3204.000			-49.698			-5.522
3305.000			-49.680			-5.520
3404.000			-49.663			-5.518
3504.000			-49.631			-5.515
3604.000			-49.617			-5.513
3704.000			-49.601			-5.511
3804.000			-49.586			-5.510
3904.000			-49.573			-5.508
4004.000			-49.558			-5.506
4105.000			-49.542			-5.505
4204.000			-49.515			-5.502
4303.000			-49.502			-5.500
4405.000			-49.488			-5.499
4504.000			-49.475			-5.497
4604.000			-49.462			-5.496
4705.000			-49.450			-5.494
4804.000			-49.437			-5.493
4904.000			-49.415			-5.491
5005.000			-49.403			-5.489
5104.000			-49.391			-5.488
5204.000			-49.380			-5.487
5305.000			-49.370			-5.486
5404.000			-49.359			-5.484
5503.000			-49.348			-5.483
5605.000			-49.327			-5.481
5704.000			-49.316			-5.480
5804.000			-49.306			-5.478
5905.000			-49.296			-5.477
6004.000			-49.285			-5.476
6104.000			-49.276			-5.475
6204.000			-49.267			-5.474
6304.000			-49.247			-5.472
6404.000			-49.239			-5.471
6505.000			-49.230			-5.470
6604.000			-49.220			-5.469
6704.000			-49.211			-5.468
6805.000			-49.202			-5.467
6903.000			-49.194			-5.466
7004.000			-49.185			-5.465
7105.000			-49.169			-5.463
7204.000			-49.161			-5.462
7305.000			-49.153			-5.461
7404.000			-49.144			-5.460
7504.000			-49.135			-5.459
7604.000			-49.128			-5.459
7704.000			-49.121			-5.458
7804.000			-49.105			-5.456
7905.000			-49.096			-5.455
8004.000			-49.089			-5.454
8103.000			-49.082			-5.454
8205.000			-49.075			-5.453
8304.000			-49.067			-5.452
8404.000			-49.060			-5.451
8505.000			-49.046			-5.450
8604.000			-49.039			-5.449
8704.000			-49.032			-5.448
8804.000			-49.025			-5.447
8904.000			-49.018			-5.446
9004.000			-49.010			-5.446
9105.000			-49.003			-5.445
9204.000			-48.989			-5.443
9304.000			-48.984			-5.443
9405.000			-48.978			-5.442
9503.000			-48.971			-5.441
9604.000			-48.964			-5.440
9705.000			-48.958			-5.440
9804.000			-48.953			-5.439
9904.000			-48.946			-5.438
10005.000			-48.933			-5.437
10104.000			-48.927			-5.436
10203.000			-48.922			-5.436
10305.000			-48.916			-5.435
10404.000			-48.910			-5.434
10505.000			-48.903			-5.434
10604.000			-48.897			-5.433
10704.000			-48.886			-5.432
10805.000			-48.881			-5.431
10903.000			-48.875			-5.431
11004.000			-48.870			-5.430
11105.000			-48.865			-5.429
11204.000			-48.859			-5.429
11304.000			-48.854			-5.428
11405.000			-48.841			-5.427
11504.000			-48.836			-5.426
11603.000			-48.831			-5.426
11705.000			-48.825			-5.425
11804.000			-48.822			-5.425
11904.000			-48.818			-5.424
12005.000			-48.812			-5.424
12104.000			-48.799			-5.422
12204.000			-48.793			-5.421
12304.000			-48.788			-5.421
12404.000			-48.785			-5.421
12504.000			-48.781			-5.420
12605.000			-48.774			-5.419
12704.000			-48.768			-5.419
12804.000			-48.765			-5.418
12905.000			-48.755			-5.417
13003.000			-48.749			-5.417
13104.000			-48.746			-5.416
13205.000			-48.742			-5.416
13304.000			-48.737			-5.415
13404.000			-48.732			-5.415
13504.000			-48.727			-5.414
13604.000			-48.716			-5.413
13703.000			-48.712			-5.412
13804.000			-48.709			-5.412
13904.000			-48.704			-5.412
14005.000			-48.699			-5.411
14104.000			-48.695			-5.411
14204.000			-48.691			-5.410
14305.000			-48.682			-5.409
14403.000			-48.678			-5.409
14504.000			-48.675			-5.408
14605.000			-48.669			-5.408
14704.000			-48.664			-5.407
14804.000			-48.661			-5.407
14905.000			-48.655			-5.406
15004.000			-48.647			-5.405
15103.000			-48.643			-5.405
15205.000			-48.639			-5.404
15304.000			-48.635			-5.404
15404.000			-48.631			-5.403
15505.000			-48.627			-5.403
15604.000			-48.623			-5.403
15704.000			-48.619			-5.402
15804.000			-48.611			-5.401
15904.000			-48.607			-5.401
16004.000			-48.603			-5.400
16105.000			-48.600			-5.400
16204.000			-48.596			-5.400
16304.000			-48.592			-5.399
16405.000			-48.588			-5.399
16503.000			-48.579			-5.398
16604.000			-48.576			-5.397
16705.000			-48.572			-5.397
16804.000			-48.567			-5.396
16905.000			-48.564			-5.396
17004.000			-48.560			-5.396
17104.000			-48.556			-5.395
17204.000			-48.550			-5.394
17304.000			-48.546			-5.394
17404.000			-48.543			-5.394
17505.000			-48.538			-5.393
17604.000			-48.533			-5.393
17704.000			-48.531			-5.392
17805.000			-48.528			-5.392
17903.000			-48.521			-5.391
18004.000			-48.518			-5.391
18105.000			-48.514			-5.390
18204.000			-48.510			-5.390
18304.000			-48.506			-5.390
18405.000			-48.503			-5.389
18504.000			-48.499			-5.389
18603.000			-48.496			-5.388
18705.000			-48.489			-5.388
18804.000			-48.487			-5.387
18904.000			-48.482			-5.387
19005.000			-48.478			-5.386
19104.000			-48.476			-5.386
19204.000			-48.474			-5.386
19304.000			-48.469			-5.385
19404.000			-48.461			-5.385
19504.000			-48.458			-5.384
19605.000			-48.455			-5.384
19704.000			-48.452			-5.384
19804.000			-48.450			-5.383
19905.000			-48.446			-5.383
20003.000			-48.443			-5.383
20105.000			-48.437			-5.382
20204.000			-48.433			-5.381
20304.000			-48.429			-5.381
20405.000			-48.425			-5.381
20504.000			-48.422			-5.380
20604.000			-48.419			-5.380
20704.000			-48.417			-5.380
20804.000			-48.411			-5.379
20904.000			-48.407			-5.379
21005.000			-48.405			-5.378
21104.000			-48.403			-5.378
21204.000			-48.399			-5.378
21305.000			-48.396			-5.377
21403.000			-48.391			-5.377
21504.000			-48.388			-5.376
21605.000			-48.382			-5.376
21704.000			-48.379			-5.375
21804.000			-48.377			-5.375
21905.000			-48.375			-5.375
22004.000			-48.372			-5.375
22103.000			-48.368			-5.374
22205.000			-48.366			-5.374
22304.000			-48.361			-5.373
22404.000			-48.358			-5.373
22505.000			-48.353			-5.373
22604.000			-48.350			-5.372
22704.000			-48.347			-5.372
22804.000			-48.345			-5.372
22904.000			-48.342			-5.371
23004.000			-48.336			-5.371
23104.000			-48.334			-5.370
23204.000			-48.331			-5.370
23303.000			-48.328			-5.370
23404.000			-48.325			-5.369
23503.000			-48.324			-5.369
23605.000			-48.320			-5.369
23704.000			-48.314			-5.368
23804.000			-48.312			-5.368
23905.000			-48.310			-5.368
24003.000			-48.307			-5.367
24104.000			-48.305			-5.367
24205.000			-48.303			-5.367
24304.000			-48.300			-5.367
24404.000			-48.294			-5.366
24505.000			-48.291			-5.366
24604.000			-48.289			-5.365
24703.000			-48.285			-5.365
24805.000			-48.282			-5.365
24904.000			-48.280			-5.364
25004.000			-48.278			-5.364
25105.000			-48.275			-5.364
25204.000			-48.270			-5.363
25304.000			-48.268			-5.363
25404.000			-48.267			-5.363
25504.000			-48.263			-5.363
25604.000			-48.259			-5.362
25705.000			-48.258			-5.362
25804.000			-48.255			-5.362
25904.000			-48.249			-5.361
26005.000			-48.246			-5.361
26103.000			-48.244			-5.360
26204.000			-48.241			-5.360
26305.000			-48.239			-5.360
26404.000			-48.235			-5.359
26505.000			-48.232			-5.359
26604.000			-48.228			-5.359
26704.000			-48.226			-5.358
26804.000			-48.223			-5.358
26904.000			-48.220			-5.358
27004.000			-48.219			-5.358
27105.000			-48.217			-5.357
27204.000			-48.215			-5.357
27304.000			-48.210			-5.357
27405.000			-48.207			-5.356
27503.000			-48.204			-5.356
27604.000			-48.201			-5.356
27705.000			-48.199			-5.355
27804.000			-48.197			-5.355
27904.000			-48.195			-5.355
28005.000			-48.193			-5.355
28104.000			-48.187			-5.354
28203.000			-48.185			-5.354
28305.000			-48.183			-5.354
28404.000			-48.182			-5.354
28504.000			-48.179			-5.353
28605.000			-48.176			-5.353
28704.000			-48.174			-5.353
28804.000			-48.169			-5.352
28904.000			-48.168			-5.352
29004.000			-48.165			-5.352
29104.000			-48.163			-5.351
29205.000			-48.161			-5.351
29304.000			-48.158			-5.351
29404.000			-48.156			-5.351
29505.000			-48.151			-5.350
29603.000			-48.150			-5.350
29705.000			-48.147			-5.350
29804.000			-48.143			-5.349
29904.000			-48.141			-5.349
30005.000			-48.140			-5.349
30104.000			-48.139			-5.349
30204.000			-48.133			-5.348
30304.000			-48.132			-5.348
30404.000			-48.128			-5.348
30504.000			-48.126			-5.347
30605.000			-48.125			-5.347
30704.000			-48.122			-5.347
30804.000			-48.120			-5.347
30905.000			-48.119			-5.347
31003.000			-48.114			-5.346
31104.000			-48.112			-5.346
31205.000			-48.109			-5.345
31304.000			-48.108			-5.345
31404.000			-48.105			-5.345
31504.000			-48.104			-5.345
31604.000			-48.101			-5.345
31704.000			-48.094			-5.344
31805.000			-48.093			-5.344
31904.000			-48.092			-5.344
32004.000			-48.090			-5.343
32105.000			-48.088			-5.343
32203.000			-48.086			-5.343
32304.000			-48.084			-5.343
32405.000			-48.080			-5.342
32504.000			-48.079			-5.342
32604.000			-48.076			-5.342
32704.000			-48.075			-5.342
32804.000			-48.071			-5.341
32903.000			-48.069			-5.341
33004.000			-48.068			-5.341
33104.000			-48.064			-5.340
33205.000			-48.062			-5.340
33304.000			-48.060			-5.340
33404.000			-48.058			-5.340
33505.000			-48.056			-5.340
33603.000			-48.054			-5.339
33704.000			-48.052			-5.339
33805.000			-48.048			-5.339
33904.000			-48.046			-5.338
34004.000			-48.044			-5.338
34104.000			-48.041			-5.338
34204.000			-48.040			-5.338
34303.000			-48.039			-5.338
34405.000			-48.037			-5.337
34504.000			-48.034			-5.337
34604.000			-48.030			-5.337
34705.000			-48.029			-5.337
34804.000			-48.027			-5.336
34904.000			-48.024			-5.336
35004.000			-48.023			-5.336
35104.000			-48.021			-5.336
35204.000			-48.019			-5.335
35305.000			-48.015			-5.335
35404.000			-48.014			-5.335
35503.000			-48.010			-5.334
35605.000			-48.008			-5.334
35704.000			-48.006			-5.334
35804.000			-48.004			-5.334
35905.000			-48.003			-5.334
36004.000			-48.000			-5.333
36105.000			-47.998			-5.333
36203.000			-47.996			-5.333
36304.000			-47.994			-5.333
36405.000			-47.992			-5.332
36504.000			-47.989			-5.332
36604.000			-47.987			-5.332
36705.000			-47.986			-5.332
36804.000			-47.983			-5.331
36903.000			-47.982			-5.331
37005.000			-47.980			-5.331
37104.000			-47.979			-5.331
37204.000			-47.977			-5.331
37305.000			-47.973			-5.330
37404.000			-47.972			-5.330
37504.000			-47.968			-5.330
37604.000			-47.967			-5.330
37704.000			-47.965			-5.329
37804.000			-47.962			-5.329
37905.000			-47.960			-5.329
38004.000			-47.958			-5.329
38104.000			-47.957			-5.329
38205.000			-47.954			-5.328
38303.000			-47.953			-5.328
38404.000			-47.952			-5.328
38505.000			-47.949			-5.328
38604.000			-47.946			-5.327
38704.000			-47.945			-5.327
38805.000			-47.944			-5.327
38904.000			-47.939			-5.327
39003.000			-47.938			-5.326
39105.000			-47.936			-5.326
39204.000			-47.934			-5.326
39305.000			-47.932			-5.326
39404.000			-47.930			-5.326
39504.000			-47.930			-5.326
39605.000			-47.926			-5.325
39704.000			-47.924			-5.325
39804.000			-47.922			-5.325
39904.000			-47.921			-5.325
40004.000			-47.920			-5.324
40104.000			-47.920			-5.324
40205.000			-47.917			-5.324
40304.000			-47.915			-5.324
40404.000			-47.911			-5.323
40505.000			-47.909			-5.323
40603.000			-47.908			-5.323
40704.000			-47.907			-5.323
40805.000			-47.905			-5.323
40904.000			-47.904			-5.323
41004.000			-47.902			-5.322
41105.000			-47.898			-5.322
41204.000			-47.896			-5.322
41303.000			-47.895			-5.322
41405.000			-47.895			-5.322
41504.000			-47.892			-5.321
41604.000			-47.890			-5.321
41705.000			-47.889			-5.321
41804.000			-47.885			-5.321
41904.000			-47.884			-5.320
42004.000			-47.883			-5.320
42104.000			-47.881			-5.320
42204.000			-47.878			-5.320
42304.000			-47.877			-5.320
42404.000			-47.875			-5.319
42505.000			-47.871			-5.319
42604.000			-47.869			-5.319
42703.000			-47.869			-5.319
42805.000			-47.869			-5.319
42904.000			-47.867			-5.319
43004.000			-47.865			-5.318
43105.000			-47.862			-5.318
43204.000			-47.861			-5.318
43304.000			-47.858			-5.318
43404.000			-47.855			-5.317
43504.000			-47.854			-5.317
43604.000			-47.854			-5.317
43705.000			-47.852			-5.317
43804.000			-47.849			-5.317
43904.000			-47.848			-5.316
44005.000			-47.844			-5.316
44103.000			-47.842			-5.316
44204.000			-47.841			-5.316
44305.000			-47.840			-5.316
44404.000			-47.839			-5.315
44504.000			-47.837			-5.315
44605.000			-47.835			-5.315
44704.000			-47.833			-5.315
44803.000			-47.831			-5.315
44905.000			-47.830			-5.314
45004.000			-47.828			-5.314
45104.000			-47.828			-5.314
45205.000			-47.826			-5.314
45304.000			-47.824			-5.314
45404.000			-47.820			-5.313
45503.000			-47.819			-5.313
45604.000			-47.817			-5.313
45705.000			-47.816			-5.313
45804.000			-47.816			-5.313
45904.000			-47.814			-5.313
46005.000			-47.813			-5.313
46104.000			-47.811			-5.312
46203.000			-47.807			-5.312
46305.000			-47.805			-5.312
46404.000			-47.805			-5.312
46504.000			-47.804			-5.312
46605.000			-47.802			-5.311
46704.000			-47.801			-5.311
46804.000			-47.799			-5.311
46904.000			-47.795			-5.311
47004.000			-47.794			-5.310
47104.000			-47.792			-5.310
47205.000			-47.790			-5.310
47304.000			-47.790			-5.310
47404.000			-47.788			-5.310
47505.000			-47.787			-5.310
47603.000			-47.784			-5.309
47704.000			-47.782			-5.309
47805.000			-47.781			-5.309
47904.000			-47.780			-5.309
48004.000			-47.777			-5.309
48105.000			-47.776			-5.308
48204.000			-47.776			-5.308
48303.000			-47.774			-5.308
48405.000			-47.772			-5.308
48504.000			-47.770			-5.308
48604.000			-47.770			-5.308
48705.000			-47.767			-5.307
48804.000			-47.766			-5.307
48905.000			-47.765			-5.307
49003.000			-47.764			-5.307
49104.000			-47.760			-5.307
49205.000			-47.759			-5.307
49304.000			-47.758			-5.306
49404.000			-47.757			-5.306
49505.000			-47.755			-5.306
49604.000			-47.754			-5.306
49703.000			-47.752			-5.306
49805.000			-47.750			-5.306
49904.000			-47.748			-5.305
50004.000			-47.746			-5.305
50105.000			-47.745			-5.305
50204.000			-47.744			-5.305
50304.000			-47.743			-5.305
50404.000			-47.742			-5.305
50504.000			-47.739			-5.304
50604.000			-47.736			-5.304
50705.000			-47.735			-5.304
50804.000			-47.734			-5.304
50904.000			-47.734			-5.304
51005.000			-47.731			-5.303
51103.000			-47.729			-5.303
51204.000			-47.727			-5.303
51305.000			-47.725			-5.303
51404.000			-47.724			-5.303
51504.000			-47.724			-5.303
51605.000			-47.723			-5.303
51704.000			-47.720			-5.302
51803.000			-47.719			-5.302
51905.000			-47.716			-5.302
52004.000			-47.716			-5.302
52105.000			-47.715			-5.302
52204.000			-47.714			-5.302
52304.000			-47.712			-5.301
52405.000			-47.710			-5.301
52503.000			-47.708			-5.301
52604.000			-47.707			-5.301
52705.000			-47.704			-5.300
52804.000			-47.703			-5.300
52904.000			-47.701			-5.300
53005.000			-47.700			-5.300
53104.000			-47.698			-5.300
53203.000			-47.698			-5.300
53305.000			-47.696			-5.300
53404.000			-47.693			-5.299
53504.000			-47.693			-5.299
53605.000			-47.692			-5.299
53704.000			-47.689			-5.299
53804.000			-47.687			-5.299
53904.000			-47.687			-5.299
54004.000			-47.688			-5.299
54104.000			-47.684			-5.298
54205.000			-47.682			-5.298
54304.000			-47.682			-5.298
54404.000			-47.682			-5.298
54505.000			-47.681			-5.298
54603.000			-47.678			-5.298
54704.000			-47.677			-5.297
54805.000			-47.674			-5.297
54904.000			-47.672			-5.297
55004.000			-47.670			-5.297
55104.000			-47.671			-5.297
55204.000			-47.670			-5.297
55303.000			-47.668			-5.296
55404.000			-47.666			-5.296
55504.000			-47.664			-5.296
55605.000			-47.663			-5.296
55704.000			-47.662			-5.296
55804.000			-47.661			-5.296
55905.000			-47.660			-5.296
56003.000			-47.660			-5.296
56104.000			-47.658			-5.295
56205.000			-47.655			-5.295
56304.000			-47.653			-5.295
56404.000			-47.652			-5.295
56505.000			-47.651			-5.295
56604.000			-47.650			-5.294
56703.000			-47.649			-5.294
56805.000			-47.648			-5.294
56904.000			-47.646			-5.294
57004.000			-47.642			-5.294
57105.000			-47.641			-5.293
57204.000			-47.642			-5.294
57304.000			-47.640			-5.293
57404.000			-47.639			-5.293
57504.000			-47.637			-5.293
57604.000			-47.637			-5.293
57705.000			-47.632			-5.292
57804.000			-47.632			-5.292
57904.000			-47.631			-5.292
58005.000			-47.628			-5.292
58103.000			-47.629			-5.292
58204.000			-47.628			-5.292
58305.000			-47.626			-5.292
58404.000			-47.624			-5.292
58505.000			-47.623			-5.291
58604.000			-47.622			-5.291
58704.000			-47.620			-5.291
58804.000			-47.619			-5.291
58904.000			-47.619			-5.291
59004.000			-47.618			-5.291
59105.000			-47.615			-5.291
59204.000			-47.613			-5.290
59304.000			-47.613			-5.290
59405.000			-47.610			-5.290
59503.000			-47.610			-5.290
59604.000			-47.608			-5.290
59705.000			-47.606			-5.290
59804.000			-47.605			-5.289
59904.000			-47.605			-5.289
60005.000			-47.603			-5.289
60104.000			-47.602			-5.289
60203.000			-47.601			-5.289
60305.000			-47.600			-5.289
60404.000			-47.600			-5.289
60504.000			-47.598			-5.289
60605.000			-47.595			-5.288
60704.000			-47.593			-5.288
60804.000			-47.592			-5.288
60904.000			-47.590			-5.288
61004.000			-47.589			-5.288
61104.000			-47.589			-5.288
61205.000			-47.588			-5.288
61304.000			-47.586			-5.287
61404.000			-47.584			-5.287
61505.000			-47.583			-5.287
61603.000			-47.582			-5.287
61705.000			-47.580			-5.287
61804.000			-47.579			-5.287
61904.000			-47.579			-5.287
62005.000			-47.577			-5.286
62104.000			-47.575			-5.286
62204.000			-47.574			-5.286
62304.000			-47.574			-5.286
62404.000			-47.573			-5.286
62504.000			-47.571			-5.286
62605.000			-47.570			-5.286
62704.000			-47.569			-5.285
62804.000			-47.568			-5.285
62905.000			-47.567			-5.285
63003.000			-47.565			-5.285
63104.000			-47.563			-5.285
63205.000			-47.561			-5.285
63304.000			-47.561			-5.285
63404.000			-47.560			-5.284
63505.000			-47.558			-5.284
63604.000			-47.557			-5.284
63703.000			-47.555			-5.284
63805.000			-47.553			-5.284
63904.000			-47.553			-5.284
64004.000			-47.552			-5.284
64105.000			-47.550			-5.283
64204.000			-47.549			-5.283
64304.000			-47.546			-5.283
64404.000			-47.545			-5.283
64504.000			-47.545			-5.283
64604.000			-47.545			-5.283
64704.000			-47.544			-5.283
64804.000			-47.543			-5.283
64905.000			-47.541			-5.282
65004.000			-47.541			-5.282
65103.000			-47.540			-5.282
65205.000			-47.538			-5.282
65304.000			-47.536			-5.282
65404.000			-47.536			-5.282
65505.000			-47.535			-5.282
65604.000			-47.533			-5.281
65704.000			-47.530			-5.281
65804.000			-47.529			-5.281
65904.000			-47.529			-5.281
66004.000			-47.528			-5.281
66105.000			-47.526			-5.281
66204.000			-47.525			-5.281
66304.000			-47.523			-5.280
66405.000			-47.522			-5.280
66503.000			-47.522			-5.280
66604.000			-47.521			-5.280
66705.000			-47.518			-5.280
66804.000			-47.517			-5.280
66904.000			-47.517			-5.280
67005.000			-47.515			-5.279
67104.000			-47.514			-5.279
67203.000			-47.512			-5.279
67305.000			-47.511			-5.279
67404.000			-47.510			-5.279
67504.000			-47.510			-5.279
67605.000			-47.508			-5.279
67704.000			-47.507			-5.279
67804.000			-47.506			-5.278
67903.000			-47.504			-5.278
68004.000			-47.502			-5.278
68105.000			-47.502			-5.278
68204.000			-47.501			-5.278
68304.000			-47.500			-5.278
68405.000			-47.498			-5.278
68504.000			-47.497			-5.277
68603.000			-47.493			-5.277
68705.000			-47.493			-5.277
68804.000			-47.493			-5.277
68904.000			-47.492			-5.277
69005.000			-47.491			-5.277
69104.000			-47.491			-5.277
69204.000			-47.488			-5.276
69304.000			-47.488			-5.276
69404.000			-47.487			-5.276
69504.000			-47.485			-5.276
69605.000			-47.484			-5.276
69704.000			-47.483			-5.276
69804.000			-47.483			-5.276
69905.000			-47.481			-5.276
70004.000			-47.478			-5.275
70104.000			-47.478			-5.275
70204.000			-47.478			-5.275
70304.000			-47.475			-5.275
70404.000			-47.474			-5.275
70505.000			-47.474			-5.275
70604.000			-47.473			-5.275
70704.000			-47.473			-5.275
70805.000			-47.471			-5.275
70903.000			-47.470			-5.274
71004.000			-47.469			-5.274
71105.000			-47.467			-5.274
71204.000			-47.465			-5.274
71305.000			-47.464			-5.274
71404.000			-47.464			-5.274
71504.000			-47.463			-5.274
71604.000			-47.462			-5.274
71704.000			-47.461			-5.273
71804.000			-47.460			-5.273
71905.000			-47.458			-5.273
72004.000			-47.458			-5.273
72104.000			-47.457			-5.273
72205.000			-47.455			-5.273
72303.000			-47.454			-5.273
72404.000			-47.453			-5.273
72505.000			-47.452			-5.272
72604.000			-47.451			-5.272
72704.000			-47.450			-5.272
72805.000			-47.449			-5.272
72904.000			-47.445			-5.272
73003.000			-47.444			-5.272
73105.000			-47.445			-5.272
73204.000			-47.445			-5.272
73304.000			-47.443			-5.271
73405.000			-47.442			-5.271
73504.000			-47.441			-5.271
73604.000			-47.439			-5.271
73704.000			-47.438			-5.271
73804.000			-47.437			-5.271
73904.000			-47.435			-5.271
74005.000			-47.435			-5.271
74104.000			-47.435			-5.271
74204.000			-47.433			-5.270
74305.000			-47.432			-5.270
74403.000			-47.430			-5.270
74505.000			-47.430			-5.270
74604.000			-47.429			-5.270
74704.000			-47.428			-5.270
74805.000			-47.426			-5.270
74904.000			-47.425			-5.269
75004.000			-47.424			-5.269
75104.000			-47.423			-5.269
75204.000			-47.421			-5.269
75304.000			-47.420			-5.269
75405.000			-47.419			-5.269
75504.000			-47.419			-5.269
75604.000			-47.419			-5.269
75705.000			-47.419			-5.269
75803.000			-47.416			-5.268
75904.000			-47.415			-5.268
76005.000			-47.413			-5.268
76104.000			-47.412			-5.268
76204.000			-47.411			-5.268
76305.000			-47.410			-5.268
76404.000			-47.409			-5.268
76503.000			-47.408			-5.268
76605.000			-47.408			-5.268
76704.000			-47.405			-5.267
76804.000			-47.404			-5.267
76905.000			-47.405			-5.267
77004.000			-47.404			-5.267
77104.000			-47.403			-5.267
77204.000			-47.402			-5.267
77304.000			-47.399			-5.267
77404.000			-47.397			-5.266
77504.000			-47.397			-5.266
77604.000			-47.397			-5.266
77705.000			-47.397			-5.266
77804.000			-47.396			-5.266
77903.000			-47.395			-5.266
78005.000			-47.392			-5.266
78104.000			-47.391			-5.266
78204.000			-47.389			-5.265
78305.000			-47.388			-5.265
78404.000			-47.388			-5.265
78504.000			-47.387			-5.265
78604.000			-47.386			-5.265
78704.000			-47.384			-5.265
78804.000			-47.383			-5.265
78905.000			-47.383			-5.265
79004.000			-47.382			-5.265
79104.000			-47.381			-5.265
79205.000			-47.381			-5.265
79303.000			-47.380			-5.264
79404.000			-47.379			-5.264
79505.000			-47.378			-5.264
79604.000			-47.376			-5.264
79704.000			-47.376			-5.264
79805.000			-47.376			-5.264
79904.000			-47.373			-5.264
80004.000			-47.371			-5.263
80105.000			-47.370			-5.263
80203.000			-47.370			-5.263
80304.000			-47.370			-5.263
80405.000			-47.369			-5.263
80504.000			-47.368			-5.263
80604.000			-47.366			-5.263
80704.000			-47.365			-5.263
80804.000			-47.363			-5.263
80903.000			-47.362			-5.262
81004.000			-47.362			-5.262
81104.000			-47.361			-5.262
81205.000			-47.360			-5.262
81304.000			-47.360			-5.262
81404.000			-47.358			-5.262
81505.000			-47.356			-5.262
81603.000			-47.354			-5.262
81704.000			-47.354			-5.262
81805.000			-47.353			-5.261
81904.000			-47.352			-5.261
82004.000			-47.351			-5.261
82105.000			-47.351			-5.261
82204.000			-47.351			-5.261
82303.000			-47.348			-5.261
82405.000			-47.347			-5.261
82504.000			-47.347			-5.261
82604.000			-47.346			-5.261
82705.000			-47.345			-5.261
82804.000			-47.345			-5.261
82904.000			-47.343			-5.260
83004.000			-47.343			-5.260
83104.000			-47.340			-5.260
83204.000			-47.340			-5.260
83305.000			-47.339			-5.260
83404.000			-47.337			-5.260
83504.000			-47.337			-5.260
83605.000			-47.336			-5.260
83703.000			-47.335			-5.259
83804.000			-47.333			-5.259
83905.000			-47.334			-5.259
84004.000			-47.333			-5.259
84105.000			-47.331			-5.259
84204.000			-47.330			-5.259
84304.000			-47.330			-5.259
84404.000			-47.329			-5.259
84504.000			-47.327			-5.259
84604.000			-47.326			-5.258
84705.000			-47.325			-5.258
84804.000			-47.326			-5.258
84904.000			-47.325			-5.258
85005.000			-47.323			-5.258
85103.000			-47.322			-5.258
85204.000			-47.322			-5.258
85305.000			-47.320			-5.258
85404.000			-47.319			-5.258
85504.000			-47.318			-5.258
85605.000			-47.318			-5.258
85704.000			-47.318			-5.258
85803.000			-47.315			-5.257
85905.000			-47.313			-5.257
86004.000			-47.312			-5.257
86104.000			-47.312			-5.257
86205.000			-47.312			-5.257
86304.000			-47.312			-5.257
86404.000			-47.311			-5.257
86504.000			-47.310			-5.257
86604.000			-47.310			-5.257
86704.000			-47.309			-5.257
86805.000			-47.308			-5.256
86904.000			-47.307			-5.256
87004.000			-47.305			-5.256
87105.000			-47.303			-5.256
87203.000			-47.302			-5.256
87305.000			-47.302			-5.256
87404.000			-47.300			-5.256
87504.000			-47.299			-5.255
87605.000			-47.298			-5.255
87704.000			-47.297			-5.255
87804.000			-47.297			-5.255
87904.000			-47.295			-5.255
88004.000			-47.295			-5.255
88104.000			-47.293			-5.255
88205.000			-47.292			-5.255
88304.000			-47.292			-5.255
88404.000			-47.290			-5.254
88505.000			-47.290			-5.254
88603.000			-47.289			-5.254
88704.000			-47.288			-5.254
88805.000			-47.287			-5.254
88904.000			-47.285			-5.254
89004.000			-47.285			-5.254
89105.000			-47.285			-5.254
89204.000			-47.284			-5.254
89304.000			-47.282			-5.254
89405.000			-47.282			-5.254
89503.000			-47.282			-5.254
89604.000			-47.281			-5.253
89705.000			-47.280			-5.253
89804.000			-47.279			-5.253
89904.000			-47.278			-5.253
90005.000			-47.276			-5.253
90104.000			-47.275			-5.253
90203.000			-47.276			-5.253
90305.000			-47.273			-5.253
90404.000			-47.271			-5.252
90505.000			-47.270			-5.252
90604.000			-47.270			-5.252
90704.000			-47.270			-5.252
90805.000			-47.268			-5.252
90903.000			-47.268			-5.252
91004.000			-47.267			-5.252
91105.000			-47.267			-5.252
91204.000			-47.266			-5.252
91304.000			-47.266			-5.252
91405.000			-47.265			-5.252
91504.000			-47.262			-5.251
91603.000			-47.262			-5.251
91705.000			-47.262			-5.251
91804.000			-47.260			-5.251
91904.000			-47.258			-5.251
92005.000			-47.257			-5.251
92104.000			-47.257			-5.251
92204.000			-47.257			-5.251
92304.000			-47.256			-5.251
92404.000			-47.255			-5.251
92504.000			-47.254			-5.250
92605.000			-47.253			-5.250
92704.000			-47.251			-5.250
92804.000			-47.250			-5.250
92905.000			-47.250			-5.250
93003.000			-47.249			-5.250
93104.000			-47.248			-5.250
93205.000			-47.247			-5.250
93304.000			-47.247			-5.250
93404.000			-47.246			-5.250
93504.000			-47.245			-5.249
93604.000			-47.245			-5.249
93703.000			-47.243			-5.249
93804.000			-47.242			-5.249
93904.000			-47.241			-5.249
94005.000			-47.239			-5.249
94104.000			-47.239			-5.249
94204.000			-47.240			-5.249
94305.000			-47.239			-5.249
94403.000			-47.237			-5.249
94504.000			-47.236			-5.248
94605.000			-47.235			-5.248
94704.000			-47.233			-5.248
94804.000			-47.232			-5.248
94905.000			-47.231			-5.248
95004.000			-47.231			-5.248
95103.000			-47.231			-5.248
95205.000			-47.231			-5.248
95304.000			-47.229			-5.248
95404.000			-47.229			-5.248
95505.000			-47.227			-5.247
95604.000			-47.227			-5.247
95704.000			-47.227			-5.247
95804.000			-47.225			-5.247
95904.000			-47.225			-5.247
96004.000			-47.224			-5.247
96105.000			-47.223			-5.247
96204.000			-47.222			-5.247
96304.000			-47.221			-5.247
96405.000			-47.220			-5.247
96503.000			-47.219			-5.247
96604.000			-47.218			-5.246
96705.000			-47.217			-5.246
96804.000			-47.216			-5.246
96905.000			-47.216			-5.246
97004.000			-47.214			-5.246
97104.000			-47.213			-5.246
97204.000			-47.213			-5.246
97304.000			-47.211			-5.246
97404.000			-47.210			-5.246
97505.000			-47.210			-5.246
97604.000			-47.208			-5.245
97704.000			-47.208			-5.245
97805.000			-47.208			-5.245
97903.000			-47.207			-5.245
98004.000			-47.207			-5.245
98105.000			-47.205			-5.245
98204.000			-47.204			-5.245
98304.000			-47.204			-5.245
98405.000			-47.204			-5.245
98504.000			-47.203			-5.245
98603.000			-47.200			-5.244
98705.000			-47.201			-5.245
98804.000			-47.201			-5.245
98904.000			-47.199			-5.244
99005.000			-47.197			-5.244
99104.000			-47.197			-5.244
99204.000			-47.196			-5.244
99304.000			-47.196			-5.244
99404.000			-47.195			-5.244
99504.000			-47.194			-5.244
99605.000			-47.193			-5.244
99704.000			-47.192			-5.244
99804.000			-47.192			-5.244
99905.000			-47.191			-5.243
100003.000			-47.189			-5.243
100105.000			-47.189			-5.243
100203.000			-47.189			-5.243
100304.000			-47.187			-5.243
100405.000			-47.185			-5.243
100504.000			-47.185			-5.243
100604.000			-47.185			-5.243
100705.000			-47.184			-5.243
100804.000			-47.183			-5.243
100903.000			-47.182			-5.242
101005.000			-47.180			-5.242
101104.000			-47.181			-5.242
101204.000			-47.180			-5.242
101305.000			-47.179			-5.242
101404.000			-47.178			-5.242
101504.000			-47.178			-5.242
101604.000			-47.177			-5.242
101704.000			-47.176			-5.242
101804.000			-47.175			-5.242
101905.000			-47.174			-5.242
102004.000			-47.173			-5.241
102104.000			-47.173			-5.241
102205.000			-47.172			-5.241
102303.000			-47.171			-5.241
102404.000			-47.171			-5.241
102505.000			-47.169			-5.241
102604.000			-47.167			-5.241
102704.000			-47.166			-5.241
102805.000			-47.166			-5.241
102904.000			-47.165			-5.241
103003.000			-47.164			-5.240
103105.000			-47.164			-5.240
103204.000			-47.163			-5.240
103305.000			-47.163			-5.240
103404.000			-47.162			-5.240
103504.000			-47.162			-5.240
103605.000			-47.161			-5.240
103703.000			-47.160			-5.240
103804.000			-47.161			-5.240
103905.000			-47.160			-5.240
104004.000			-47.156			-5.240
104104.000			-47.156			-5.240
104205.000			-47.156			-5.240
104304.000			-47.155			-5.239
104403.000			-47.154			-5.239
104505.000			-47.154			-5.239
104604.000			-47.153			-5.239
104704.000			-47.151			-5.239
104805.000			-47.150			-5.239
104904.000			-47.149			-5.239
105004.000			-47.148			-5.239
105104.000			-47.148			-5.239
105204.000			-47.147			-5.239
105304.000			-47.147			-5.239
105405.000			-47.147			-5.239
105504.000			-47.146			-5.238
105604.000			-47.145			-5.238
105705.000			-47.144			-5.238
105803.000			-47.144			-5.238
105904.000			-47.143			-5.238
106005.000			-47.142			-5.238
106104.000			-47.142			-5.238
106204.000			-47.139			-5.238
106304.000			-47.138			-5.238
106404.000			-47.138			-5.238
106505.000			-47.138			-5.238
106604.000			-47.136			-5.237
106703.000			-47.135			-5.237
106805.000			-47.134			-5.237
106904.000			-47.134			-5.237
107004.000			-47.133			-5.237
107105.000			-47.132			-5.237
107204.000			-47.131			-5.237
107304.000			-47.131			-5.237
107404.000			-47.131			-5.237
107504.000			-47.130			-5.237
107604.000			-47.129			-5.237
107705.000			-47.128			-5.236
107804.000			-47.127			-5.236
107904.000			-47.126			-5.236
108005.000			-47.125			-5.236
108103.000			-47.124			-5.236
108204.000			-47.123			-5.236
108305.000			-47.122			-5.236
108404.000			-47.122			-5.236
108504.000			-47.121			-5.236
108605.000			-47.120			-5.236
108704.000			-47.120			-5.236
108803.000			-47.119			-5.235
108905.000			-47.119			-5.235
109004.000			-47.119			-5.235
109104.000			-47.116			-5.235
109205.000			-47.116			-5.235
109304.000			-47.116			-5.235
109404.000			-47.115			-5.235
109503.000			-47.115			-5.235
109604.000			-47.113			-5.235
109705.000			-47.112			-5.235
109804.000			-47.110			-5.234
109904.000			-47.109			-5.234
110005.000			-47.109			-5.234
110104.000			-47.108			-5.234
110203.000			-47.108			-5.234
110305.000			-47.108			-5.234
110404.000			-47.108			-5.234
110504.000			-47.106			-5.234
110605.000			-47.105			-5.234
110704.000			-47.104			-5.234
110804.000			-47.103			-5.234
110904.000			-47.104			-5.234
111004.000			-47.102			-5.234
111104.000			-47.101			-5.233
111205.000			-47.101			-5.233
111304.000			-47.100			-5.233
111404.000			-47.100			-5.233
111505.000			-47.100			-5.233
111603.000			-47.099			-5.233
111704.000			-47.099			-5.233
111805.000			-47.098			-5.233
111904.000			-47.097			-5.233
112004.000			-47.095			-5.233
112105.000			-47.095			-5.233
112204.000			-47.093			-5.233
112303.000			-47.092			-5.232
112405.000			-47.092			-5.232
112503.000			-47.091			-5.232
112604.000			-47.090			-5.232
112705.000			-47.088			-5.232
112804.000			-47.089			-5.232
112905.000			-47.088			-5.232
113004.000			-47.088			-5.232
113104.000			-47.088			-5.232
113204.000			-47.087			-5.232
113304.000			-47.085			-5.232
113404.000			-47.084			-5.232
113505.000			-47.084			-5.232
113604.000			-47.083			-5.231
113704.000			-47.082			-5.231
113805.000			-47.082			-5.231
113903.000			-47.082			-5.231
114004.000			-47.080			-5.231
114105.000			-47.079			-5.231
114204.000			-47.077			-5.231
114304.000			-47.077			-5.231
114405.000			-47.077			-5.231
114504.000			-47.076			-5.231
114603.000			-47.076			-5.231
114705.000			-47.076			-5.231
114804.000			-47.076			-5.231
114904.000			-47.073			-5.230
115005.000			-47.072			-5.230
115104.000			-47.071			-5.230
115204.000			-47.071			-5.230
115304.000			-47.071			-5.230
115404.000			-47.072			-5.230
115504.000			-47.070			-5.230
115605.000			-47.069			-5.230
115704.000			-47.069			-5.230
115804.000			-47.067			-5.230
115905.000			-47.066			-5.230
116003.000			-47.066			-5.230
116105.000			-47.066			-5.230
116204.000			-47.064			-5.229
116304.000			-47.062			-5.229
116405.000			-47.062			-5.229
116504.000			-47.061			-5.229
116604.000			-47.061			-5.229
116705.000			-47.060			-5.229
116804.000			-47.059			-5.229
116903.000			-47.059			-5.229
117005.000			-47.058			-5.229
117104.000			-47.056			-5.228
117204.000			-47.056			-5.228
117305.000			-47.057			-5.229
117404.000			-47.056			-5.228
117504.000			-47.055			-5.228
117604.000			-47.054			-5.228
117704.000			-47.053			-5.228
117804.000			-47.054			-5.228
117905.000			-47.053			-5.228
118004.000			-47.053			-5.228
118104.000			-47.051			-5.228
118205.000			-47.049			-5.228
118303.000			-47.048			-5.228
118404.000			-47.048			-5.228
118505.000			-47.047			-5.227
118604.000			-47.048			-5.228
118704.000			-47.047			-5.227
118805.000			-47.045			-5.227
118904.000			-47.045			-5.227
119003.000			-47.044			-5.227
119105.000			-47.043			-5.227
119203.000			-47.042			-5.227
119305.000			-47.042			-5.227
119404.000			-47.042			-5.227
119504.000			-47.041			-5.227
119605.000			-47.040			-5.227
119704.000			-47.039			-5.227
119804.000			-47.039			-5.227
119904.000			-47.039			-5.227
120004.000			-47.037			-5.226
120104.000			-47.035			-5.226
120205.000			-47.036			-5.226
120304.000			-47.036			-5.226
120404.000			-47.034			-5.226
120505.000			-47.033			-5.226
120603.000			-47.032			-5.226
120704.000			-47.031			-5.226
120805.000			-47.031			-5.226
120904.000			-47.031			-5.226
121004.000			-47.032			-5.226
121105.000			-47.031			-5.226
121204.000			-47.031			-5.226
121303.000			-47.030			-5.226
121405.000			-47.028			-5.225
121504.000			-47.028			-5.225
121604.000			-47.027			-5.225
121705.000			-47.027			-5.225
121804.000			-47.026			-5.225
121904.000			-47.026			-5.225
122004.000			-47.025			-5.225
122104.000			-47.023			-5.225
122204.000			-47.022			-5.225
122304.000			-47.022			-5.225
122404.000			-47.021			-5.225
122505.000			-47.021			-5.225
122604.000			-47.020			-5.224
122703.000			-47.019			-5.224
122805.000			-47.018			-5.224
122904.000			-47.018			-5.224
123004.000			-47.019			-5.224
123105.000			-47.018			-5.224
123204.000			-47.017			-5.224
123304.000			-47.015			-5.224
123404.000			-47.014			-5.224
123504.000			-47.013			-5.224
123604.000			-47.012			-5.224
123705.000			-47.011			-5.223
123804.000			-47.010			-5.223
123904.000			-47.010			-5.223
124005.000			-47.010			-5.223
124103.000			-47.009			-5.223
124204.000			-47.008			-5.223
124305.000			-47.007			-5.223
124404.000			-47.006			-5.223
124504.000			-47.005			-5.223
124605.000			-47.006			-5.223
124704.000			-47.006			-5.223
124803.000			-47.005			-5.223
124905.000			-47.003			-5.223
125004.000			-47.003			-5.223
125104.000			-47.003			-5.223
125205.000			-47.002			-5.222
125304.000			-47.000			-5.222
125404.000			-46.999			-5.222
125503.000			-46.998			-5.222
125604.000			-46.998			-5.222
125705.000			-46.997			-5.222
125804.000			-46.997			-5.222
125904.000			-46.996			-5.222
126005.000			-46.994			-5.222
126104.000			-46.995			-5.222
126203.000			-46.995			-5.222
126305.000			-46.995			-5.222
126403.000			-46.995			-5.222
126504.000			-46.994			-5.222
126605.000			-46.993			-5.221
126704.000			-46.992			-5.221
126804.000			-46.991			-5.221
126905.000			-46.991			-5.221
127004.000			-46.991			-5.221
127103.000			-46.990			-5.221
127205.000			-46.988			-5.221
127304.000			-46.988			-5.221
127404.000			-46.986			-5.221
127505.000			-46.986			-5.221
127604.000			-46.985			-5.221
127704.000			-46.984			-5.220
127804.000			-46.985			-5.221
127904.000			-46.983			-5.220
128003.000			-46.983			-5.220
128105.000			-46.981			-5.220
128204.000			-46.981			-5.220
128304.000			-46.980			-5.220
128405.000			-46.980			-5.220
128504.000			-46.979			-5.220
128604.000			-46.978			-5.220
128703.000			-46.977			-5.220
128804.000			-46.977			-5.220
128905.000			-46.977			-5.220
129004.000			-46.976			-5.220
129104.000			-46.975			-5.219
129205.000			-46.975			-5.219
129304.000			-46.974			-5.219
129404.000			-46.974			-5.219
129505.000			-46.972			-5.219
129603.000			-46.971			-5.219
129704.000			-46.971			-5.219
129805.000			-46.972			-5.219
129904.000			-46.971			-5.219
130004.000			-46.970			-5.219
130105.000			-46.969			-5.219
130204.000			-46.969			-5.219
130303.000			-46.968			-5.219
130405.000			-46.966			-5.218
130503.000			-46.966			-5.218
130604.000			-46.966			-5.218
130705.000			-46.965			-5.218
130804.000			-46.963			-5.218
130904.000			-46.963			-5.218
131005.000			-46.963			-5.218
131104.000			-46.963			-5.218
131203.000			-46.962			-5.218
131305.000			-46.962			-5.218
131404.000			-46.962			-5.218
131504.000			-46.959			-5.218
131605.000			-46.960			-5.218
131704.000			-46.959			-5.218
131804.000			-46.958			-5.218
131904.000			-46.957			-5.217
132004.000			-46.957			-5.217
132103.000			-46.957			-5.217
132204.000			-46.955			-5.217
132304.000			-46.954			-5.217
132405.000			-46.954			-5.217
132504.000			-46.954			-5.217
132604.000			-46.954			-5.217
132705.000			-46.952			-5.217
132804.000			-46.952			-5.217
132904.000			-46.951			-5.217
133004.000			-46.949			-5.217
133104.000			-46.950			-5.217
133203.000			-46.949			-5.217
133305.000			-46.947			-5.216
133404.000			-46.947			-5.216
133504.000			-46.947			-5.216
133605.000			-46.946			-5.216
133704.000			-46.944			-5.216
133804.000			-46.943			-5.216
133904.000			-46.944			-5.216
134004.000			-46.945			-5.216
134103.000			-46.943			-5.216
134205.000			-46.942			-5.216
134304.000			-46.942			-5.216
134404.000			-46.941			-5.216
134505.000			-46.940			-5.216
134604.000			-46.940			-5.216
134704.000			-46.938			-5.215
134804.000			-46.938			-5.215
134904.000			-46.938			-5.215
135003.000			-46.938			-5.215
135105.000			-46.938			-5.215
135204.000			-46.937			-5.215
135305.000			-46.936			-5.215
135404.000			-46.936			-5.215
135504.000			-46.935			-5.215
135605.000			-46.934			-5.215
135704.000			-46.933			-5.215
135804.000			-46.933			-5.215
135904.000			-46.932			-5.215
136004.000			-46.931			-5.215
136104.000			-46.931			-5.215
136205.000			-46.930			-5.214
136304.000			-46.929			-5.214
136404.000			-46.929			-5.214
136505.000			-46.928			-5.214
136604.000			-46.926			-5.214
136704.000			-46.927			-5.214
136804.000			-46.927			-5.214
136904.000			-46.926			-5.214
137004.000			-46.924			-5.214
137105.000			-46.924			-5.214
137204.000			-46.923			-5.214
137304.000			-46.924			-5.214
137405.000			-46.923			-5.214
137504.000			-46.922			-5.214
137604.000			-46.921			-5.213
137704.000			-46.920			-5.213
137804.000			-46.920			-5.213
137904.000			-46.920			-5.213
138005.000			-46.918			-5.213
138104.000			-46.918			-5.213
138204.000			-46.917			-5.213
138305.000			-46.916			-5.213
138404.000			-46.916			-5.213
138505.000			-46.916			-5.213
138603.000			-46.915			-5.213
138704.000			-46.914			-5.213
138804.000			-46.914			-5.213
138904.000			-46.913			-5.213
139004.000			-46.912			-5.212
139105.000			-46.912			-5.212
139204.000			-46.912			-5.212
139304.000			-46.911			-5.212
139405.000			-46.911			-5.212
139503.000			-46.910			-5.212
139604.000			-46.909			-5.212
139704.000			-46.910			-5.212
139804.000			-46.908			-5.212
139904.000			-46.907			-5.212
140005.000			-46.907			-5.212
140104.000			-46.907			-5.212
140204.000			-46.906			-5.212
140305.000			-46.905			-5.212
140403.000			-46.905			-5.212
140504.000			-46.905			-5.212
140604.000			-46.904			-5.212
140704.000			-46.903			-5.211
140804.000			-46.902			-5.211
140905.000			-46.902			-5.211
141004.000			-46.900			-5.211
141104.000			-46.899			-5.211
141205.000			-46.899			-5.211
141303.000			-46.899			-5.211
141404.000			-46.899			-5.211
141503.000			-46.898			-5.211
141604.000			-46.897			-5.211
141705.000			-46.896			-5.211
141804.000			-46.896			-5.211
141904.000			-46.896			-5.211
142005.000			-46.895			-5.211
142104.000			-46.894			-5.210
142203.000			-46.894			-5.210
142305.000			-46.894			-5.210
142403.000			-46.891			-5.210
142504.000			-46.891			-5.210
142605.000			-46.891			-5.210
142704.000			-46.892			-5.210
142804.000			-46.891			-5.210
142905.000			-46.889			-5.210
143004.000			-46.889			-5.210
143104.000			-46.889			-5.210
143205.000			-46.888			-5.210
143303.000			-46.887			-5.210
143404.000			-46.887			-5.210
143505.000			-46.887			-5.210
143604.000			-46.885			-5.209
143704.000			-46.885			-5.209
143805.000			-46.883			-5.209
143904.000			-46.883			-5.209
144004.000			-46.883			-5.209
144105.000			-46.883			-5.209
144203.000			-46.883			-5.209
144304.000			-46.881			-5.209
144405.000			-46.881			-5.209
144504.000			-46.881			-5.209
144604.000			-46.881			-5.209
144704.000			-46.879			-5.209
144804.000			-46.877			-5.209
144905.000			-46.877			-5.209
145004.000			-46.877			-5.209
145103.000			-46.876			-5.208
145205.000			-46.875			-5.208
145303.000			-46.875			-5.208
145404.000			-46.875			-5.208
145505.000			-46.875			-5.208
145604.000			-46.875			-5.208
145704.000			-46.874			-5.208
145805.000			-46.872			-5.208
145904.000			-46.871			-5.208
146004.000			-46.871			-5.208
146105.000			-46.871			-5.208
146203.000			-46.871			-5.208
146304.000			-46.869			-5.208
146405.000			-46.868			-5.208
146504.000			-46.867			-5.207
146604.000			-46.867			-5.207
146705.000			-46.867			-5.207
146804.000			-46.866			-5.207
146904.000			-46.866			-5.207
147005.000			-46.867			-5.207
147103.000			-46.865			-5.207
147204.000			-46.864			-5.207
147305.000			-46.863			-5.207
147404.000			-46.862			-5.207
147504.000			-46.861			-5.207
147605.000			-46.861			-5.207
147704.000			-46.862			-5.207
147804.000			-46.861			-5.207
147905.000			-46.861			-5.207
148003.000			-46.860			-5.207
148105.000			-46.859			-5.207
148203.000			-46.858			-5.206
148304.000			-46.858			-5.206
148405.000			-46.858			-5.206
148504.000			-46.858			-5.206
148604.000			-46.858			-5.206
148705.000			-46.856			-5.206
148804.000			-46.855			-5.206
148904.000			-46.854			-5.206
149005.000			-46.854			-5.206
149103.000			-46.854			-5.206
149204.000			-46.852			-5.206
149305.000			-46.852			-5.206
149404.000			-46.852			-5.206
149504.000			-46.851			-5.206
149605.000			-46.848			-5.205
149704.000			-46.848			-5.205
149804.000			-46.849			-5.205
149905.000			-46.848			-5.205
150003.000			-46.848			-5.205
150104.000			-46.848			-5.205
150205.000			-46.847			-5.205
150304.000			-46.845			-5.205
150404.000			-46.845			-5.205
150505.000			-46.845			-5.205
150604.000			-46.844			-5.205
150704.000			-46.844			-5.205
150805.000			-46.844			-5.205
150903.000			-46.843			-5.205
151004.000			-46.842			-5.205
151103.000			-46.841			-5.205
151204.000			-46.840			-5.204
151305.000			-46.840			-5.204
151404.000			-46.840			-5.204
151504.000			-46.840			-5.204
151605.000			-46.839			-5.204
151704.000			-46.839			-5.204
151803.000			-46.837			-5.204
151905.000			-46.837			-5.204
152004.000			-46.837			-5.204
152104.000			-46.836			-5.204
152205.000			-46.836			-5.204
152304.000			-46.835			-5.204
152404.000			-46.834			-5.204
152505.000			-46.835			-5.204
152604.000			-46.835			-5.204
152703.000			-46.833			-5.204
152805.000			-46.833			-5.204
152903.000			-46.831			-5.203
153004.000			-46.830			-5.203
153105.000			-46.830			-5.203
153204.000			-46.830			-5.203
153304.000			-46.830			-5.203
153405.000			-46.829			-5.203
153504.000			-46.829			-5.203
153604.000			-46.828			-5.203
153705.000			-46.826			-5.203
153803.000			-46.826			-5.203
153904.000			-46.825			-5.203
154005.000			-46.825			-5.203
154104.000			-46.824			-5.203
154204.000			-46.823			-5.203
154304.000			-46.823			-5.203
154404.000			-46.824			-5.203
154505.000			-46.824			-5.203
154604.000			-46.823			-5.203
154703.000			-46.822			-5.202
154805.000			-46.820			-5.202
154904.000			-46.820			-5.202
155004.000			-46.819			-5.202
155105.000			-46.820			-5.202
155204.000			-46.819			-5.202
155304.000			-46.819			-5.202
155405.000			-46.818			-5.202
155504.000			-46.817			-5.202
155603.000			-46.817			-5.202
155705.000			-46.817			-5.202
155804.000			-46.816			-5.202
155904.000			-46.815			-5.202
156005.000			-46.815			-5.202
156104.000			-46.813			-5.201
156204.000			-46.812			-5.201
156305.000			-46.812			-5.201
156404.000			-46.813			-5.201
156503.000			-46.812			-5.201
156605.000			-46.811			-5.201
156704.000			-46.810			-5.201
156804.000			-46.810			-5.201
156905.000			-46.809			-5.201
157004.000			-46.810			-5.201
157104.000			-46.810			-5.201
157205.000			-46.809			-5.201
157304.000			-46.808			-5.201
157403.000			-46.807			-5.201
157505.000			-46.805			-5.201
157604.000			-46.805			-5.201
157705.000			-46.804			-5.200
157804.000			-46.804			-5.200
157904.000			-46.804			-5.200
158005.000			-46.804			-5.200
158104.000			-46.804			-5.200
158204.000			-46.803			-5.200
158304.000			-46.801			-5.200
158404.000			-46.802			-5.200
158503.000			-46.800			-5.200
158605.000			-46.800			-5.200
158704.000			-46.800			-5.200
158804.000			-46.800			-5.200
158905.000			-46.799			-5.200
159004.000			-46.797			-5.200
159104.000			-46.796			-5.200
159205.000			-46.797			-5.200
159304.000			-46.796			-5.200
159403.000			-46.796			-5.200
159505.000			-46.795			-5.199
159603.000			-46.794			-5.199
159704.000			-46.794			-5.199
159805.000			-46.795			-5.199
159904.000			-46.794			-5.199
160004.000			-46.792			-5.199
160105.000			-46.791			-5.199
160204.000			-46.791			-5.199
160303.000			-46.792			-5.199
160405.000			-46.791			-5.199
160503.000			-46.791			-5.199
160604.000			-46.790			-5.199
160705.000			-46.789			-5.199
160804.000			-46.788			-5.199
160905.000			-46.787			-5.199
161004.000			-46.787			-5.199
161104.000			-46.787			-5.199
161205.000			-46.786			-5.198
161304.000			-46.785			-5.198
161403.000			-46.785			-5.198
161505.000			-46.785			-5.198
161604.000			-46.784			-5.198
161704.000			-46.783			-5.198
161805.000			-46.783			-5.198
161904.000			-46.782			-5.198
162004.000			-46.781			-5.198
162105.000			-46.782			-5.198
162204.000			-46.781			-5.198
162303.000			-46.780			-5.198
162405.000			-46.780			-5.198
162504.000			-46.778			-5.198
162604.000			-46.779			-5.198
162705.000			-46.779			-5.198
162804.000			-46.779			-5.198
162904.000			-46.778			-5.198
163005.000			-46.777			-5.197
163104.000			-46.777			-5.197
163203.000			-46.776			-5.197
163305.000			-46.775			-5.197
163403.000			-46.775			-5.197
163504.000			-46.774			-5.197
163605.000			-46.774			-5.197
163704.000			-46.774			-5.197
163804.000			-46.773			-5.197
163904.000			-46.772			-5.197
164004.000			-46.772			-5.197
164105.000			-46.770			-5.197
164204.000			-46.769			-5.197
164303.000			-46.768			-5.196
164405.000			-46.769			-5.197
164504.000			-46.769			-5.197
164604.000			-46.768			-5.196
164705.000			-46.768			-5.196
164804.000			-46.766			-5.196
164904.000			-46.766			-5.196
165005.000			-46.766			-5.196
165104.000			-46.765			-5.196
165203.000			-46.764			-5.196
165305.000			-46.765			-5.196
165404.000			-46.763			-5.196
165504.000			-46.762			-5.196
165605.000			-46.763			-5.196
165704.000			-46.762			-5.196
165804.000			-46.761			-5.196
165905.000			-46.761			-5.196
166004.000			-46.760			-5.196
166103.000			-46.759			-5.195
166205.000			-46.760			-5.196
166303.000			-46.758			-5.195
166404.000			-46.759			-5.195
166505.000			-46.759			-5.195
166604.000			-46.758			-5.195
166704.000			-46.757			-5.195
166805.000			-46.757			-5.195
166904.000			-46.757			-5.195
167004.000			-46.756			-5.195
167105.000			-46.756			-5.195
167203.000			-46.757			-5.195
167305.000			-46.756			-5.195
167404.000			-46.755			-5.195
167504.000			-46.754			-5.195
167605.000			-46.753			-5.195
167704.000			-46.754			-5.195
167804.000			-46.753			-5.195
167905.000			-46.753			-5.195
168004.000			-46.752			-5.195
168103.000			-46.750			-5.194
168205.000			-46.750			-5.194
168304.000			-46.750			-5.194
168404.000			-46.749			-5.194
168505.000			-46.747			-5.194
168604.000			-46.747			-5.194
168704.000			-46.748			-5.194
168805.000			-46.747			-5.194
168904.000			-46.746			-5.194
169003.000			-46.745			-5.194
169105.000			-46.745			-5.194
169203.000			-46.745			-5.194
169304.000			-46.744			-5.194
169405.000			-46.744			-5.194
169504.000			-46.744			-5.194
169604.000			-46.743			-5.194
169705.000			-46.742			-5.194
169804.000			-46.741			-5.193
169904.000			-46.741			-5.193
170005.000			-46.740			-5.193
170103.000			-46.739			-5.193
170204.000			-46.739			-5.193
170305.000			-46.739			-5.193
170404.000			-46.739			-5.193
170505.000			-46.739			-5.193
170604.000			-46.737			-5.193
170704.000			-46.736			-5.193
170805.000			-46.737			-5.193
170904.000			-46.737			-5.193
171003.000			-46.736			-5.193
171105.000			-46.735			-5.193
171204.000			-46.734			-5.193
171304.000			-46.734			-5.193
171405.000			-46.734			-5.193
171504.000			-46.732			-5.192
171604.000			-46.730			-5.192
171705.000			-46.731			-5.192
171804.000			-46.732			-5.192
171903.000			-46.732			-5.192
172005.000			-46.731			-5.192
172104.000			-46.731			-5.192
172204.000			-46.730			-5.192
172305.000			-46.729			-5.192
172404.000			-46.728			-5.192
172504.000			-46.728			-5.192
172605.000			-46.727			-5.192
172704.000			-46.727			-5.192
172803.000			-46.726			-5.192
172905.000			-46.726			-5.192
173004.000			-46.725			-5.192
173104.000			-46.725			-5.192
173205.000			-46.725			-5.192
173304.000			-46.725			-5.192
173404.000			-46.725			-5.192
173504.000			-46.723			-5.191
173604.000			-46.723			-5.191
173703.000			-46.721			-5.191
173804.000			-46.721			-5.191
173904.000			-46.721			-5.191
174005.000			-46.719			-5.191
174104.000			-46.720			-5.191
174204.000			-46.719			-5.191
174305.000			-46.718			-5.191
174404.000			-46.716			-5.191
174504.000			-46.716			-5.191
174604.000			-46.716			-5.191
174704.000			-46.716			-5.191
174803.000			-46.716			-5.191
174905.000			-46.715			-5.191
175004.000			-46.714			-5.190
175104.000			-46.714			-5.190
175205.000			-46.714			-5.190
175304.000			-46.713			-5.190
175404.000			-46.713			-5.190
175504.000			-46.714			-5.190
175604.000			-46.713			-5.190
175703.000			-46.711			-5.190
175805.000			-46.712			-5.190
175904.000			-46.712			-5.190
176004.000			-46.712			-5.190
176105.000			-46.711			-5.190
176204.000			-46.709			-5.190
176304.000			-46.707			-5.190
176404.000			-46.708			-5.190
176504.000			-46.707			-5.190
176603.000			-46.707			-5.190
176705.000			-46.708			-5.190
176804.000			-46.707			-5.190
176905.000			-46.707			-5.190
177004.000			-46.706			-5.190
177104.000			-46.705			-5.189
177205.000			-46.704			-5.189
177303.000			-46.704			-5.189
177404.000			-46.704			-5.189
177504.000			-46.704			-5.189
177604.000			-46.703			-5.189
177704.000			-46.702			-5.189
177805.000			-46.702			-5.189
177904.000			-46.701			-5.189
178004.000			-46.701			-5.189
178105.000			-46.700			-5.189
178203.000			-46.700			-5.189
178304.000			-46.699			-5.189
178404.000			-46.699			-5.189
178504.000			-46.699			-5.189
178604.000			-46.696			-5.188
178705.000			-46.697			-5.189
178804.000			-46.696			-5.188
178904.000			-46.695			-5.188
179005.000			-46.695			-5.188
179104.000			-46.695			-5.188
179204.000			-46.695			-5.188
179304.000			-46.693			-5.188
179404.000			-46.693			-5.188
179503.000			-46.693			-5.188
179605.000			-46.692			-5.188
179704.000			-46.693			-5.188
179804.000			-46.692			-5.188
179905.000			-46.690			-5.188
180004.000			-46.690			-5.188
180105.000			-46.689			-5.188
180204.000			-46.689			-5.188
180304.000			-46.688			-5.188
180404.000			-46.688			-5.188
180504.000			-46.688			-5.188
180603.000			-46.688			-5.188
180705.000			-46.688			-5.188
180804.000			-46.687			-5.187
180904.000			-46.687			-5.187
181005.000			-46.686			-5.187
181104.000			-46.686			-5.187
181204.000			-46.685			-5.187
181304.000			-46.684			-5.187
181404.000			-46.684			-5.187
181503.000			-46.682			-5.187
181605.000			-46.683			-5.187
181704.000			-46.683			-5.187
181804.000			-46.682			-5.187
181905.000			-46.682			-5.187
182004.000			-46.682			-5.187
182104.000			-46.682			-5.187
182204.000			-46.680			-5.187
182304.000			-46.679			-5.187
182403.000			-46.679			-5.187
182505.000			-46.679			-5.187
182604.000			-46.678			-5.186
182704.000			-46.678			-5.186
182805.000			-46.676			-5.186
182904.000			-46.677			-5.186
183004.000			-46.677			-5.186
183104.000			-46.676			-5.186
183204.000			-46.675			-5.186
183303.000			-46.675			-5.186
183404.000			-46.674			-5.186
183504.000			-46.673			-5.186
183605.000			-46.674			-5.186
183704.000			-46.672			-5.186
183804.000			-46.672			-5.186
183905.000			-46.672			-5.186
184004.000			-46.672			-5.186
184104.000			-46.671			-5.186
184204.000			-46.672			-5.186
184304.000			-46.671			-5.186
184403.000			-46.670			-5.186
184505.000			-46.669			-5.185
184604.000			-46.668			-5.185
184704.000			-46.668			-5.185
184805.000			-46.668			-5.185
184904.000			-46.669			-5.185
185004.000			-46.668			-5.185
185105.000			-46.667			-5.185
185204.000			-46.666			-5.185
185303.000			-46.666			-5.185
185405.000			-46.665			-5.185
185504.000			-46.664			-5.185
185604.000			-46.664			-5.185
185705.000			-46.663			-5.185
185804.000			-46.663			-5.185
185904.000			-46.661			-5.185
186005.000			-46.660			-5.184
186104.000			-46.660			-5.184
186203.000			-46.660			-5.184
186305.000			-46.661			-5.185
186404.000			-46.662			-5.185
186505.000			-46.660			-5.184
186604.000			-46.659			-5.184
186704.000			-46.659			-5.184
186805.000			-46.659			-5.184
186904.000			-46.658			-5.184
187004.000			-46.658			-5.184
187104.000			-46.657			-5.184
187204.000			-46.657			-5.184
187303.000			-46.656			-5.184
187405.000			-46.656			-5.184
187504.000			-46.655			-5.184
187604.000			-46.655			-5.184
187705.000			-46.654			-5.184
187804.000			-46.654			-5.184
187904.000			-46.653			-5.184
188005.000			-46.654			-5.184
188104.000			-46.652			-5.184
188203.000			-46.652			-5.184
188305.000			-46.651			-5.183
188404.000			-46.650			-5.183
188504.000			-46.650			-5.183
188605.000			-46.650			-5.183
188704.000			-46.650			-5.183
188804.000			-46.649			-5.183
188905.000			-46.648			-5.183
189004.000			-46.647			-5.183
189104.000			-46.646			-5.183
189205.000			-46.646			-5.183
189303.000			-46.646			-5.183
189404.000			-46.647			-5.183
189505.000			-46.645			-5.183
189604.000			-46.644			-5.183
189705.000			-46.645			-5.183
189804.000			-46.645			-5.183
189904.000			-46.644			-5.183
190005.000			-46.642			-5.182
190104.000			-46.643			-5.183
190203.000			-46.641			-5.182
190305.000			-46.641			-5.182
190404.000			-46.641			-5.182
190504.000			-46.641			-5.182
190605.000			-46.640			-5.182
190704.000			-46.640			-5.182
190804.000			-46.639			-5.182
190905.000			-46.639			-5.182
191004.000			-46.639			-5.182
191103.000			-46.640			-5.182
191205.000			-46.640			-5.182
191303.000			-46.638			-5.182
191404.000			-46.636			-5.182
191505.000			-46.636			-5.182
191604.000			-46.637			-5.182
191704.000			-46.636			-5.182
191805.000			-46.635			-5.182
191904.000			-46.635			-5.182
192003.000			-46.634			-5.182
192105.000			-46.634			-5.182
192203.000			-46.633			-5.181
192304.000			-46.633			-5.181
192405.000			-46.633			-5.181
192504.000			-46.633			-5.181
192604.000			-46.632			-5.181
192704.000			-46.632			-5.181
192804.000			-46.630			-5.181
192903.000			-46.630			-5.181
193004.000			-46.630			-5.181
193103.000			-46.630			-5.181
193205.000			-46.631			-5.181
193304.000			-46.630			-5.181
193404.000			-46.628			-5.181
193505.000			-46.629			-5.181
193604.000			-46.627			-5.181
193704.000			-46.626			-5.181
193804.000			-46.627			-5.181
193904.000			-46.626			-5.181
194003.000			-46.626			-5.181
194105.000			-46.627			-5.181
194204.000			-46.626			-5.181
194304.000			-46.625			-5.181
194405.000			-46.623			-5.180
194504.000			-46.622			-5.180
194604.000			-46.622			-5.180
194705.000			-46.622			-5.180
194804.000			-46.621			-5.180
194903.000			-46.621			-5.180
195005.000			-46.621			-5.180
195104.000			-46.620			-5.180
195204.000			-46.620			-5.180
195305.000			-46.618			-5.180
195404.000			-46.619			-5.180
195504.000			-46.619			-5.180
195605.000			-46.618			-5.180
195704.000			-46.618			-5.180
195803.000			-46.618			-5.180
195905.000			-46.616			-5.180
196004.000			-46.616			-5.180
196105.000			-46.615			-5.179
196204.000			-46.615			-5.179
196304.000			-46.616			-5.180
196405.000			-46.615			-5.179
196504.000			-46.614			-5.179
196604.000			-46.614			-5.179
196704.000			-46.613			-5.179
196804.000			-46.613			-5.179
196903.000			-46.611			-5.179
197005.000			-46.612			-5.179
197104.000			-46.613			-5.179
197204.000			-46.611			-5.179
197305.000			-46.610			-5.179
197404.000			-46.610			-5.179
197504.000			-46.610			-5.179
197604.000			-46.610			-5.179
197704.000			-46.609			-5.179
197803.000			-46.608			-5.179
197905.000			-46.608			-5.179
198004.000			-46.607			-5.179
198104.000			-46.607			-5.179
198205.000			-46.606			-5.178
198304.000			-46.607			-5.179
198404.000			-46.606			-5.178
198505.000			-46.604			-5.178
198604.000			-46.604			-5.178
198703.000			-46.605			-5.178
198805.000			-46.605			-5.178
198904.000			-46.604			-5.178
199004.000			-46.604			-5.178
199105.000			-46.602			-5.178
199204.000			-46.602			-5.178
199305.000			-46.602			-5.178
199404.000			-46.600			-5.178
199504.000			-46.601			-5.178
199604.000			-46.600			-5.178
199704.000			-46.600			-5.178
199803.000			-46.599			-5.178
199905.000			-46.599			-5.178
200004.000			-46.600			-5.178
200104.000			-46.599			-5.178
200205.000			-46.598			-5.178
200304.000			-46.597			-5.177
200404.000			-46.598			-5.178
200505.000			-46.597			-5.177
200604.000			-46.596			-5.177
200703.000			-46.594			-5.177
200805.000			-46.594			-5.177
200904.000			-46.595			-5.177
201004.000			-46.595			-5.177
201105.000			-46.593			-5.177
201204.000			-46.593			-5.177
201304.000			-46.594			-5.177
201405.000			-46.593			-5.177
201504.000			-46.593			-5.177
201603.000			-46.592			-5.177
201705.000			-46.591			-5.177
201804.000			-46.591			-5.177
201904.000			-46.590			-5.177
202005.000			-46.590			-5.177
202104.000			-46.588			-5.176
202204.000			-46.588			-5.176
202304.000			-46.588			-5.176
202404.000			-46.589			-5.177
202503.000			-46.588			-5.176
202604.000			-46.587			-5.176
202703.000			-46.586			-5.176
202805.000			-46.586			-5.176
202904.000			-46.586			-5.176
203004.000			-46.585			-5.176
203105.000			-46.585			-5.176
203204.000			-46.584			-5.176
203304.000			-46.583			-5.176
203404.000			-46.583			-5.176
203504.000			-46.582			-5.176
203603.000			-46.583			-5.176
203705.000			-46.584			-5.176
203804.000			-46.582			-5.176
203904.000			-46.580			-5.176
204005.000			-46.579			-5.175
204104.000			-46.580			-5.176
204204.000			-46.580			-5.176
204304.000			-46.580			-5.176
204404.000			-46.580			-5.176
204503.000			-46.580			-5.176
204605.000			-46.580			-5.176
204704.000			-46.579			-5.175
204804.000			-46.578			-5.175
204905.000			-46.578			-5.175
205004.000			-46.578			-5.175
205104.000			-46.577			-5.175
205204.000			-46.577			-5.175
205304.000			-46.576			-5.175
205403.000			-46.576			-5.175
205505.000			-46.576			-5.175
205604.000			-46.575			-5.175
205705.000			-46.574			-5.175
205804.000			-46.574			-5.175
205904.000			-46.574			-5.175
206005.000			-46.573			-5.175
206103.000			-46.572			-5.175
206204.000			-46.571			-5.175
206304.000			-46.570			-5.174
206404.000			-46.571			-5.175
206504.000			-46.570			-5.174
206605.000			-46.571			-5.175
206704.000			-46.570			-5.174
206804.000			-46.569			-5.174
206905.000			-46.569			-5.174
207004.000			-46.570			-5.174
207104.000			-46.570			-5.174
207204.000			-46.569			-5.174
207304.000			-46.568			-5.174
207404.000			-46.568			-5.174
207505.000			-46.567			-5.174
207604.000			-46.564			-5.174
207704.000			-46.565			-5.174
207805.000			-46.565			-5.174
207904.000			-46.565			-5.174
208004.000			-46.565			-5.174
208104.000			-46.565			-5.174
208204.000			-46.564			-5.174
208304.000			-46.563			-5.174
208405.000			-46.562			-5.174
208504.000			-46.561			-5.173
208604.000			-46.562			-5.174
208705.000			-46.562			-5.174
208804.000			-46.562			-5.174
208905.000			-46.561			-5.173
209003.000			-46.560			-5.173
209104.000			-46.561			-5.173
209205.000			-46.560			-5.173
209304.000			-46.560			-5.173
209404.000			-46.559			-5.173
209505.000			-46.559			-5.173
209604.000			-46.559			-5.173
209704.000			-46.558			-5.173
209805.000			-46.558			-5.173
209903.000			-46.558			-5.173
210004.000			-46.557			-5.173
210104.000			-46.556			-5.173
210204.000			-46.556			-5.173
210304.000			-46.555			-5.173
210405.000			-46.555			-5.173
210504.000			-46.553			-5.173
210604.000			-46.553			-5.173
210705.000			-46.552			-5.172
210803.000			-46.551			-5.172
210904.000			-46.552			-5.172
211005.000			-46.552			-5.172
211104.000			-46.552			-5.172
211204.000			-46.552			-5.172
211305.000			-46.552			-5.172
211404.000			-46.551			-5.172
211504.000			-46.551			-5.172
211605.000			-46.550			-5.172
211703.000			-46.550			-5.172
211804.000			-46.550			-5.172
211905.000			-46.549			-5.172
212004.000			-46.549			-5.172
212105.000			-46.549			-5.172
212204.000			-46.548			-5.172
212304.000			-46.546			-5.172
212405.000			-46.545			-5.172
212504.000			-46.545			-5.172
212603.000			-46.545			-5.172
212705.000			-46.544			-5.172
212804.000			-46.542			-5.171
212904.000			-46.543			-5.171
213005.000			-46.543			-5.171
213104.000			-46.543			-5.171
213204.000			-46.542			-5.171
213304.000			-46.542			-5.171
213404.000			-46.542			-5.171
213503.000			-46.541			-5.171
213605.000			-46.540			-5.171
213704.000			-46.540			-5.171
213804.000			-46.541			-5.171
213905.000			-46.542			-5.171
214004.000			-46.541			-5.171
214104.000			-46.539			-5.171
214204.000			-46.539			-5.171
214304.000			-46.538			-5.171
214403.000			-46.536			-5.171
214505.000			-46.537			-5.171
214604.000			-46.536			-5.171
214704.000			-46.536			-5.171
214805.000			-46.536			-5.171
214904.000			-46.535			-5.171
215004.000			-46.536			-5.171
215103.000			-46.536			-5.171
215204.000			-46.535			-5.171
215305.000			-46.536			-5.171
215404.000			-46.535			-5.171
215504.000			-46.533			-5.170
215605.000			-46.533			-5.170
215704.000			-46.533			-5.170
215804.000			-46.532			-5.170
215905.000			-46.531			-5.170
216003.000			-46.531			-5.170
216104.000			-46.532			-5.170
216205.000			-46.532			-5.170
216304.000			-46.531			-5.170
216404.000			-46.530			-5.170
216505.000			-46.530			-5.170
216604.000			-46.529			-5.170
216704.000			-46.529			-5.170
216805.000			-46.528			-5.170
216903.000			-46.527			-5.170
217004.000			-46.527			-5.170
217105.000			-46.526			-5.170
217204.000			-46.526			-5.170
217304.000			-46.525			-5.169
217405.000			-46.525			-5.169
217504.000			-46.524			-5.169
217604.000			-46.524			-5.169
217705.000			-46.525			-5.169
217803.000			-46.524			-5.169
217904.000			-46.522			-5.169
218005.000			-46.522			-5.169
218104.000			-46.523			-5.169
218204.000			-46.522			-5.169
218304.000			-46.521			-5.169
218404.000			-46.521			-5.169
218505.000			-46.521			-5.169
218604.000			-46.520			-5.169
218703.000			-46.519			-5.169
218805.000			-46.520			-5.169
218904.000			-46.520			-5.169
219004.000			-46.521			-5.169
219105.000			-46.520			-5.169
219204.000			-46.519			-5.169
219304.000			-46.518			-5.169
219405.000			-46.517			-5.169
219504.000			-46.517			-5.169
219603.000			-46.517			-5.169
219705.000			-46.516			-5.168
219804.000			-46.516			-5.168
219904.000			-46.515			-5.168
220005.000			-46.515			-5.168
220104.000			-46.514			-5.168
220204.000			-46.514			-5.168
220304.000			-46.514			-5.168
220404.000			-46.513			-5.168
220503.000			-46.513			-5.168
220605.000			-46.513			-5.168
220704.000			-46.511			-5.168
220804.000			-46.510			-5.168
220905.000			-46.511			-5.168
221004.000			-46.511			-5.168
221104.000			-46.512			-5.168
221204.000			-46.511			-5.168
221304.000			-46.510			-5.168
221404.000			-46.509			-5.168
221504.000			-46.509			-5.168
221604.000			-46.507			-5.167
221705.000			-46.507			-5.167
221804.000			-46.507			-5.167
221904.000			-46.507			-5.167
222005.000			-46.505			-5.167
222103.000			-46.505			-5.167
222204.000			-46.505			-5.167
222305.000			-46.505			-5.167
222404.000			-46.505			-5.167
222504.000			-46.506			-5.167
222605.000			-46.505			-5.167
222704.000			-46.505			-5.167
222803.000			-46.503			-5.167
222905.000			-46.504			-5.167
223003.000			-46.503			-5.167
223104.000			-46.502			-5.167
223205.000			-46.501			-5.167
223304.000			-46.502			-5.167
223404.000			-46.502			-5.167
223505.000			-46.501			-5.167
223604.000			-46.501			-5.167
223703.000			-46.500			-5.167
223805.000			-46.498			-5.166
223904.000			-46.499			-5.167
224004.000			-46.499			-5.167
224105.000			-46.499			-5.167
224204.000			-46.498			-5.166
224304.000			-46.499			-5.167
224405.000			-46.500			-5.167
224504.000			-46.499			-5.167
224603.000			-46.497			-5.166
224705.000			-46.496			-5.166
224804.000			-46.495			-5.166
224905.000			-46.495			-5.166
225004.000			-46.494			-5.166
225104.000			-46.494			-5.166
225205.000			-46.494			-5.166
225304.000			-46.493			-5.166
225404.000			-46.492			-5.166
225504.000			-46.492			-5.166
225604.000			-46.493			-5.166
225704.000			-46.493			-5.166
225805.000			-46.492			-5.166
225904.000			-46.493			-5.166
226004.000			-46.492			-5.166
226105.000			-46.492			-5.166
226204.000			-46.492			-5.166
226304.000			-46.491			-5.166
226404.000			-46.491			-5.166
226504.000			-46.491			-5.166
226603.000			-46.489			-5.165
226705.000			-46.487			-5.165
226804.000			-46.488			-5.165
226904.000			-46.488			-5.165
227005.000			-46.487			-5.165
227104.000			-46.486			-5.165
227204.000			-46.486			-5.165
227304.000			-46.486			-5.165
227404.000			-46.486			-5.165
227503.000			-46.485			-5.165
227605.000			-46.485			-5.165
227704.000			-46.485			-5.165
227804.000			-46.485			-5.165
227905.000			-46.485			-5.165
228004.000			-46.485			-5.165
228105.000			-46.484			-5.165
228204.000			-46.482			-5.165
228304.000			-46.483			-5.165
228404.000			-46.483			-5.165
228504.000			-46.481			-5.165
228604.000			-46.480			-5.164
228705.000			-46.480			-5.164
228804.000			-46.481			-5.165
228904.000			-46.481			-5.165
229005.000			-46.481			-5.165
229104.000			-46.480			-5.164
229204.000			-46.479			-5.164
229304.000			-46.479			-5.164
229404.000			-46.478			-5.164
229503.000			-46.477			-5.164
229605.000			-46.477			-5.164
229704.000			-46.477			-5.164
229804.000			-46.477			-5.164
229905.000			-46.476			-5.164
230004.000			-46.474			-5.164
230104.000			-46.475			-5.164
230204.000			-46.476			-5.164
230304.000			-46.475			-5.164
230403.000			-46.475			-5.164
230505.000			-46.474			-5.164
230604.000			-46.474			-5.164
230704.000			-46.473			-5.164
230805.000			-46.472			-5.164
230904.000			-46.472			-5.164
231004.000			-46.472			-5.164
231103.000			-46.472			-5.164
231204.000			-46.470			-5.163
231303.000			-46.470			-5.163
231404.000			-46.470			-5.163
231504.000			-46.469			-5.163
231605.000			-46.469			-5.163
231704.000			-46.469			-5.163
231804.000			-46.469			-5.163
231905.000			-46.469			-5.163
232003.000			-46.469			-5.163
232104.000			-46.468			-5.163
232204.000			-46.468			-5.163
232304.000			-46.467			-5.163
232404.000			-46.466			-5.163
232505.000			-46.466			-5.163
232604.000			-46.466			-5.163
232704.000			-46.465			-5.163
232805.000			-46.465			-5.163
232903.000			-46.465			-5.163
233004.000			-46.466			-5.163
233104.000			-46.466			-5.163
233204.000			-46.465			-5.163
233304.000			-46.465			-5.163
233405.000			-46.464			-5.163
233504.000			-46.464			-5.163
233604.000			-46.463			-5.163
233705.000			-46.462			-5.162
233803.000			-46.462			-5.162
233904.000			-46.460			-5.162
234004.000			-46.460			-5.162
234104.000			-46.459			-5.162
234204.000			-46.460			-5.162
234304.000			-46.459			-5.162
234404.000			-46.459			-5.162
234505.000			-46.459			-5.162
234604.000			-46.458			-5.162
234703.000			-46.457			-5.162
234805.000			-46.457			-5.162
234904.000			-46.457			-5.162
235004.000			-46.457			-5.162
235105.000			-46.456			-5.162
235204.000			-46.455			-5.162
235304.000			-46.456			-5.162
235405.000			-46.456			-5.162
235504.000			-46.456			-5.162
235603.000			-46.456			-5.162
235705.000			-46.457			-5.162
235803.000			-46.455			-5.162
235904.000			-46.454			-5.162
236005.000			-46.454			-5.162
236104.000			-46.453			-5.161
236204.000			-46.451			-5.161
236305.000			-46.451			-5.161
236404.000			-46.452			-5.161
236503.000			-46.452			-5.161
236605.000			-46.451			-5.161
236703.000			-46.452			-5.161
236804.000			-46.450			-5.161
236905.000			-46.449			-5.161
237004.000			-46.450			-5.161
237104.000			-46.450			-5.161
237205.000			-46.449			-5.161
237304.000			-46.448			-5.161
237404.000			-46.448			-5.161
237505.000			-46.448			-5.161
237603.000			-46.447			-5.161
237705.000			-46.448			-5.161
237804.000			-46.447			-5.161
237904.000			-46.447			-5.161
238005.000			-46.445			-5.161
238104.000			-46.446			-5.161
238204.000			-46.446			-5.161
238305.000			-46.446			-5.161
238404.000			-46.445			-5.161
238503.000			-46.445			-5.161
238605.000			-46.443			-5.160
238704.000			-46.443			-5.160
238804.000			-46.443			-5.160
238905.000			-46.442			-5.160
239004.000			-46.441			-5.160
239104.000			-46.441			-5.160
239205.000			-46.440			-5.160
239304.000			-46.440			-5.160
239403.000			-46.440			-5.160
239505.000			-46.441			-5.160
239604.000			-46.440			-5.160
239704.000			-46.440			-5.160
239805.000			-46.440			-5.160
239904.000			-46.440			-5.160
240004.000			-46.440			-5.160
240105.000			-46.439			-5.160
240204.000			-46.438			-5.160
240303.000			-46.439			-5.160
240405.000			-46.438			-5.160
240504.000			-46.437			-5.160
240604.000			-46.437			-5.160
240705.000			-46.436			-5.160
240804.000			-46.437			-5.160
240905.000			-46.436			-5.160
241004.000			-46.436			-5.160
241104.000			-46.436			-5.160
241204.000			-46.436			-5.160
241304.000			-46.435			-5.159
241404.000			-46.434			-5.159
241505.000			-46.434			-5.159
241604.000			-46.432			-5.159
241704.000			-46.431			-5.159
241805.000			-46.431			-5.159
241903.000			-46.431			-5.159
242004.000			-46.431			-5.159
242105.000			-46.431			-5.159
242204.000			-46.431			-5.159
242304.000			-46.430			-5.159
242405.000			-46.429			-5.159
242504.000			-46.429			-5.159
242604.000			-46.428			-5.159
242705.000			-46.427			-5.159
242803.000			-46.428			-5.159
242904.000			-46.427			-5.159
243005.000			-46.426			-5.158
243104.000			-46.426			-5.158
243204.000			-46.426			-5.158
243305.000			-46.425			-5.158
243404.000			-46.424			-5.158
243504.000			-46.424			-5.158
243605.000			-46.424			-5.158
243703.000			-46.424			-5.158
243804.000			-46.424			-5.158
243905.000			-46.424			-5.158
244004.000			-46.423			-5.158
244105.000			-46.422			-5.158
244204.000			-46.422			-5.158
244304.000			-46.422			-5.158
244404.000			-46.422			-5.158
244504.000			-46.421			-5.158
244603.000			-46.420			-5.158
244705.000			-46.420			-5.158
244804.000			-46.421			-5.158
244904.000			-46.420			-5.158
245005.000			-46.421			-5.158
245104.000			-46.420			-5.158
245204.000			-46.420			-5.158
245304.000			-46.419			-5.158
245404.000			-46.418			-5.158
245503.000			-46.418			-5.158
245605.000			-46.418			-5.158
245704.000			-46.418			-5.158
245804.000			-46.417			-5.157
245905.000			-46.416			-5.157
246004.000			-46.415			-5.157
246104.000			-46.415			-5.157
246204.000			-46.414			-5.157
246304.000			-46.414			-5.157
246403.000			-46.414			-5.157
246505.000			-46.413			-5.157
246604.000			-46.412			-5.157
246704.000			-46.411			-5.157
246805.000			-46.412			-5.157
246904.000			-46.412			-5.157
247004.000			-46.411			-5.157
247103.000			-46.411			-5.157
247204.000			-46.412			-5.157
247305.000			-46.410			-5.157
247404.000			-46.411			-5.157
247504.000			-46.410			-5.157
247605.000			-46.409			-5.157
247704.000			-46.409			-5.157
247804.000			-46.408			-5.156
247905.000			-46.408			-5.156
248003.000			-46.408			-5.156
248104.000			-46.407			-5.156
248204.000			-46.406			-5.156
248304.000			-46.407			-5.156
248404.000			-46.407			-5.156
248505.000			-46.407			-5.156
248604.000			-46.407			-5.156
248704.000			-46.405			-5.156
248805.000			-46.405			-5.156
248903.000			-46.405			-5.156
249004.000			-46.404			-5.156
249104.000			-46.403			-5.156
249204.000			-46.403			-5.156
249304.000			-46.403			-5.156
249405.000			-46.403			-5.156
249504.000			-46.402			-5.156
249604.000			-46.401			-5.156
249705.000			-46.401			-5.156
249803.000			-46.401			-5.156
249904.000			-46.400			-5.156
250005.000			-46.400			-5.156
250104.000			-46.400			-5.156
250204.000			-46.399			-5.155
250304.000			-46.399			-5.155
250404.000			-46.399			-5.155
250505.000			-46.399			-5.155
250604.000			-46.397			-5.155
250703.000			-46.397			-5.155
250805.000			-46.396			-5.155
250903.000			-46.397			-5.155
251004.000			-46.397			-5.155
251105.000			-46.396			-5.155
251204.000			-46.395			-5.155
251304.000			-46.395			-5.155
251405.000			-46.395			-5.155
251504.000			-46.393			-5.155
251603.000			-46.393			-5.155
251705.000			-46.393			-5.155
251803.000			-46.392			-5.155
251904.000			-46.393			-5.155
252005.000			-46.392			-5.155
252104.000			-46.392			-5.155
252204.000			-46.391			-5.155
252305.000			-46.390			-5.154
252404.000			-46.391			-5.155
252503.000			-46.391			-5.155
252605.000			-46.391			-5.155
252703.000			-46.391			-5.155
252804.000			-46.389			-5.154
252905.000			-46.389			-5.154
253004.000			-46.387			-5.154
253104.000			-46.387			-5.154
253205.000			-46.388			-5.154
253304.000			-46.389			-5.154
253404.000			-46.388			-5.154
253505.000			-46.388			-5.154
253603.000			-46.387			-5.154
253705.000			-46.386			-5.154
253804.000			-46.386			-5.154
253904.000			-46.386			-5.154
254005.000			-46.386			-5.154
254104.000			-46.386			-5.154
254204.000			-46.386			-5.154
254305.000			-46.384			-5.154
254404.000			-46.383			-5.154
254503.000			-46.384			-5.154
254605.000			-46.383			-5.154
254704.000			-46.383			-5.154
254804.000			-46.383			-5.154
254905.000			-46.383			-5.154
255004.000			-46.381			-5.153
255104.000			-46.382			-5.154
255205.000			-46.380			-5.153
255304.000			-46.380			-5.153
255403.000			-46.380			-5.153
255505.000			-46.380			-5.153
255604.000			-46.379			-5.153
255704.000			-46.380			-5.153
255805.000			-46.380			-5.153
255904.000			-46.379			-5.153
256004.000			-46.378			-5.153
256105.000			-46.377			-5.153
256204.000			-46.377			-5.153
256303.000			-46.377			-5.153
256405.000			-46.376			-5.153
256503.000			-46.375			-5.153
256604.000			-46.376			-5.153
256705.000			-46.377			-5.153
256804.000			-46.375			-5.153
256905.000			-46.374			-5.153
257004.000			-46.374			-5.153
257104.000			-46.373			-5.153
257205.000			-46.373			-5.153
257304.000			-46.374			-5.153
257403.000			-46.373			-5.153
257505.000			-46.372			-5.152
257604.000			-46.373			-5.153
257704.000			-46.373			-5.153
257805.000			-46.373			-5.153
257904.000			-46.372			-5.152
258004.000			-46.371			-5.152
258105.000			-46.372			-5.152
258204.000			-46.371			-5.152
258303.000			-46.368			-5.152
258405.000			-46.369			-5.152
258504.000			-46.368			-5.152
258604.000			-46.369			-5.152
258705.000			-46.369			-5.152
258804.000			-46.368			-5.152
258904.000			-46.367			-5.152
259005.000			-46.366			-5.152
259104.000			-46.366			-5.152
259203.000			-46.366			-5.152
259305.000			-46.366			-5.152
259404.000			-46.366			-5.152
259504.000			-46.366			-5.152
259605.000			-46.365			-5.152
259704.000			-46.365			-5.152
259804.000			-46.363			-5.151
259904.000			-46.364			-5.152
260004.000			-46.363			-5.151
260103.000			-46.362			-5.151
260204.000			-46.361			-5.151
260303.000			-46.362			-5.151
260405.000			-46.360			-5.151
260504.000			-46.360			-5.151
260604.000			-46.360			-5.151
260705.000			-46.360			-5.151
260804.000			-46.361			-5.151
260904.000			-46.361			-5.151
261004.000			-46.360			-5.151
261104.000			-46.360			-5.151
261204.000			-46.359			-5.151
261305.000			-46.358			-5.151
261404.000			-46.359			-5.151
261504.000			-46.357			-5.151
261605.000			-46.356			-5.151
261704.000			-46.355			-5.151
261804.000			-46.356			-5.151
261904.000			-46.355			-5.151
262004.000			-46.356			-5.151
262104.000			-46.356			-5.151
262205.000			-46.355			-5.151
262304.000			-46.354			-5.150
262404.000			-46.353			-5.150
262505.000			-46.353			-5.150
262604.000			-46.352			-5.150
262704.000			-46.352			-5.150
262804.000			-46.352			-5.150
262904.000			-46.351			-5.150
263004.000			-46.351			-5.150
263104.000			-46.351			-5.150
263204.000			-46.350			-5.150
263305.000			-46.350			-5.150
263404.000			-46.349			-5.150
263504.000			-46.349			-5.150
263605.000			-46.350			-5.150
263703.000			-46.349			-5.150
263804.000			-46.349			-5.150
263905.000			-46.349			-5.150
264004.000			-46.347			-5.150
264104.000			-46.346			-5.150
264205.000			-46.347			-5.150
264304.000			-46.347			-5.150
264404.000			-46.347			-5.150
264505.000			-46.347			-5.150
264603.000			-46.346			-5.150
264704.000			-46.346			-5.150
264805.000			-46.345			-5.149
264904.000			-46.344			-5.149
265004.000			-46.344			-5.149
265105.000			-46.345			-5.149
265204.000			-46.343			-5.149
265304.000			-46.342			-5.149
265405.000			-46.341			-5.149
265503.000			-46.339			-5.149
265604.000			-46.339			-5.149
265705.000			-46.338			-5.149
265804.000			-46.338			-5.149
265904.000			-46.339			-5.149
266005.000			-46.338			-5.149
266104.000			-46.337			-5.149
266204.000			-46.339			-5.149
266305.000			-46.339			-5.149
266403.000			-46.339			-5.149
266505.000			-46.338			-5.149
266604.000			-46.338			-5.149
266704.000			-46.338			-5.149
266805.000			-46.338			-5.149
266904.000			-46.338			-5.149
267004.000			-46.337			-5.149
267105.000			-46.337			-5.149
267204.000			-46.337			-5.149
267303.000			-46.337			-5.149
267405.000			-46.337			-5.149
267504.000			-46.336			-5.148
267604.000			-46.335			-5.148
267705.000			-46.334			-5.148
267804.000			-46.334			-5.148
267904.000			-46.334			-5.148
268005.000			-46.334			-5.148
268104.000			-46.334			-5.148
268203.000			-46.334			-5.148
268305.000			-46.333			-5.148
268404.000			-46.332			-5.148
268504.000			-46.332			-5.148
268605.000			-46.332			-5.148
268704.000			-46.332			-5.148
268804.000			-46.332			-5.148
268905.000			-46.330			-5.148
269004.000			-46.330			-5.148
269103.000			-46.329			-5.148
269205.000			-46.327			-5.147
269303.000			-46.328			-5.148
269404.000			-46.327			-5.147
269505.000			-46.327			-5.147
269604.000			-46.328			-5.148
269705.000			-46.328			-5.148
269804.000			-46.327			-5.147
269904.000			-46.326			-5.147
270004.000			-46.325			-5.147
270104.000			-46.325			-5.147
270203.000			-46.325			-5.147
270305.000			-46.325			-5.147
270404.000			-46.325			-5.147
270504.000			-46.325			-5.147
270605.000			-46.323			-5.147
270704.000			-46.323			-5.147
270804.000			-46.323			-5.147
270904.000			-46.323			-5.147
271004.000			-46.323			-5.147
271104.000			-46.323			-5.147
271205.000			-46.321			-5.147
271304.000			-46.322			-5.147
271404.000			-46.322			-5.147
271505.000			-46.321			-5.147
271604.000			-46.321			-5.147
271704.000			-46.321			-5.147
271804.000			-46.320			-5.147
271904.000			-46.319			-5.147
272004.000			-46.318			-5.146
272105.000			-46.318			-5.146
272204.000			-46.319			-5.147
272304.000			-46.319			-5.147
272405.000			-46.318			-5.146
272503.000			-46.317			-5.146
272604.000			-46.316			-5.146
272703.000			-46.316			-5.146
272804.000			-46.315			-5.146
272905.000			-46.316			-5.146
273004.000			-46.316			-5.146
273104.000			-46.317			-5.146
273205.000			-46.317			-5.146
273304.000			-46.316			-5.146
273403.000			-46.315			-5.146
273505.000			-46.314			-5.146
273603.000			-46.313			-5.146
273704.000			-46.312			-5.146
273805.000			-46.312			-5.146
273904.000			-46.313			-5.146
274004.000			-46.313			-5.146
274105.000			-46.311			-5.146
274204.000			-46.312			-5.146
274303.000			-46.311			-5.146
274405.000			-46.310			-5.146
274504.000			-46.310			-5.146
274604.000			-46.310			-5.146
274705.000			-46.309			-5.145
274804.000			-46.309			-5.145
274904.000			-46.308			-5.145
275005.000			-46.308			-5.145
275104.000			-46.309			-5.145
275203.000			-46.309			-5.145
275305.000			-46.308			-5.145
275404.000			-46.308			-5.145
275504.000			-46.309			-5.145
275605.000			-46.307			-5.145
275704.000			-46.307			-5.145
275804.000			-46.306			-5.145
275904.000			-46.306			-5.145
276004.000			-46.307			-5.145
276103.000			-46.306			-5.145
276204.000			-46.305			-5.145
276303.000			-46.304			-5.145
276405.000			-46.304			-5.145
276504.000			-46.303			-5.145
276604.000			-46.303			-5.145
276705.000			-46.303			-5.145
276804.000			-46.303			-5.145
276904.000			-46.302			-5.145
277004.000			-46.302			-5.145
277104.000			-46.301			-5.145
277204.000			-46.301			-5.145
277305.000			-46.300			-5.144
277404.000			-46.300			-5.144
277504.000			-46.300			-5.144
277605.000			-46.300			-5.144
277704.000			-46.299			-5.144
277804.000			-46.300			-5.144
277904.000			-46.298			-5.144
278004.000			-46.297			-5.144
278104.000			-46.299			-5.144
278205.000			-46.299			-5.144
278304.000			-46.298			-5.144
278404.000			-46.297			-5.144
278505.000			-46.299			-5.144
278604.000			-46.297			-5.144
278704.000			-46.297			-5.144
278804.000			-46.297			-5.144
278904.000			-46.297			-5.144
279003.000			-46.295			-5.144
279105.000			-46.295			-5.144
279204.000			-46.293			-5.144
279305.000			-46.294			-5.144
279404.000			-46.295			-5.144
279504.000			-46.295			-5.144
279605.000			-46.294			-5.144
279704.000			-46.294			-5.144
279804.000			-46.293			-5.144
279904.000			-46.292			-5.144
280004.000			-46.292			-5.144
280104.000			-46.293			-5.144
280205.000			-46.292			-5.144
280304.000			-46.291			-5.143
280404.000			-46.291			-5.143
280505.000			-46.291			-5.143
280604.000			-46.290			-5.143
280704.000			-46.290			-5.143
280804.000			-46.290			-5.143
280904.000			-46.290			-5.143
281003.000			-46.290			-5.143
281105.000			-46.289			-5.143
281204.000			-46.289			-5.143
281304.000			-46.288			-5.143
281405.000			-46.289			-5.143
281504.000			-46.288			-5.143
281604.000			-46.287			-5.143
281704.000			-46.286			-5.143
281804.000			-46.286			-5.143
281903.000			-46.287			-5.143
282005.000			-46.286			-5.143
282104.000			-46.284			-5.143
282204.000			-46.283			-5.143
282305.000			-46.283			-5.143
282404.000			-46.284			-5.143
282505.000			-46.285			-5.143
282604.000			-46.285			-5.143
282704.000			-46.284			-5.143
282804.000			-46.283			-5.143
282904.000			-46.284			-5.143
283003.000			-46.283			-5.143
283105.000			-46.282			-5.142
283204.000			-46.282			-5.142
283304.000			-46.281			-5.142
283405.000			-46.281			-5.142
283504.000			-46.282			-5.142
283604.000			-46.281			-5.142
283704.000			-46.281			-5.142
283804.000			-46.281			-5.142
283903.000			-46.281			-5.142
284005.000			-46.279			-5.142
284104.000			-46.280			-5.142
284204.000			-46.280			-5.142
284305.000			-46.279			-5.142
284404.000			-46.278			-5.142
284504.000			-46.277			-5.142
284604.000			-46.277			-5.142
284704.000			-46.276			-5.142
284803.000			-46.276			-5.142
284905.000			-46.276			-5.142
285004.000			-46.277			-5.142
285104.000			-46.277			-5.142
285205.000			-46.276			-5.142
285304.000			-46.275			-5.142
285404.000			-46.275			-5.142
285504.000			-46.275			-5.142
285604.000			-46.274			-5.142
285703.000			-46.273			-5.141
285804.000			-46.273			-5.141
285904.000			-46.272			-5.141
286005.000			-46.273			-5.141
286104.000			-46.273			-5.141
286204.000			-46.273			-5.141
286305.000			-46.273			-5.141
286404.000			-46.272			-5.141
286504.000			-46.271			-5.141
286604.000			-46.271			-5.141
286704.000			-46.270			-5.141
286804.000			-46.270			-5.141
286905.000			-46.270			-5.141
287004.000			-46.270			-5.141
287104.000			-46.271			-5.141
287205.000			-46.270			-5.141
287304.000			-46.268			-5.141
287404.000			-46.267			-5.141
287504.000			-46.267			-5.141
287604.000			-46.268			-5.141
287704.000			-46.268			-5.141
287805.000			-46.268			-5.141
287904.000			-46.268			-5.141
288004.000			-46.267			-5.141
288105.000			-46.266			-5.141
288204.000			-46.266			-5.141
288304.000			-46.265			-5.141
288404.000			-46.265			-5.141
288504.000			-46.266			-5.141
288603.000			-46.265			-5.141
288705.000			-46.265			-5.141
288804.000			-46.264			-5.140
288905.000			-46.265			-5.141
289004.000			-46.263			-5.140
289104.000			-46.263			-5.140
289205.000			-46.263			-5.140
289304.000			-46.262			-5.140
289404.000			-46.262			-5.140
289504.000			-46.262			-5.140
289604.000			-46.261			-5.140
289704.000			-46.260			-5.140
289805.000			-46.260			-5.140
289904.000			-46.261			-5.140
290004.000			-46.260			-5.140
290105.000			-46.259			-5.140
290204.000			-46.260			-5.140
290304.000			-46.260			-5.140
290404.000			-46.258			-5.140
290504.000			-46.259			-5.140
290604.000			-46.259			-5.140
290705.000			-46.257			-5.140
290804.000			-46.257			-5.140
290904.000			-46.256			-5.140
291005.000			-46.257			-5.140
291104.000			-46.257			-5.140
291204.000			-46.256			-5.140
291304.000			-46.255			-5.139
291404.000			-46.256			-5.140
291504.000			-46.256			-5.140
291605.000			-46.256			-5.140
291704.000			-46.255			-5.139
291804.000			-46.254			-5.139
291905.000			-46.253			-5.139
292004.000			-46.253			-5.139
292105.000			-46.253			-5.139
292203.000			-46.253			-5.139
292304.000			-46.253			-5.139
292405.000			-46.252			-5.139
292504.000			-46.251			-5.139
292604.000			-46.252			-5.139
292705.000			-46.253			-5.139
292804.000			-46.252			-5.139
292904.000			-46.252			-5.139
293005.000			-46.252			-5.139
293103.000			-46.252			-5.139
293204.000			-46.251			-5.139
293305.000			-46.250			-5.139
293404.000			-46.250			-5.139
293504.000			-46.249			-5.139
293605.000			-46.249			-5.139
293704.000			-46.250			-5.139
293804.000			-46.249			-5.139
293905.000			-46.248			-5.139
294003.000			-46.248			-5.139
294104.000			-46.246			-5.138
294204.000			-46.246			-5.138
294304.000			-46.247			-5.139
294404.000			-46.246			-5.138
294505.000			-46.246			-5.138
294604.000			-46.245			-5.138
294704.000			-46.244			-5.138
294805.000			-46.244			-5.138
294903.000			-46.244			-5.138
295004.000			-46.244			-5.138
295103.000			-46.245			-5.138
295204.000			-46.244			-5.138
295305.000			-46.243			-5.138
295404.000			-46.244			-5.138
295504.000			-46.244			-5.138
295605.000			-46.244			-5.138
295704.000			-46.243			-5.138
295803.000			-46.242			-5.138
295905.000			-46.241			-5.138
296003.000			-46.242			-5.138
296104.000			-46.242			-5.138
296205.000			-46.241			-5.138
296304.000			-46.240			-5.138
296404.000			-46.240			-5.138
296505.000			-46.239			-5.138
296604.000			-46.240			-5.138
296703.000			-46.239			-5.138
296805.000			-46.240			-5.138
296903.000			-46.240			-5.138
297004.000			-46.240			-5.138
297105.000			-46.239			-5.138
297204.000			-46.238			-5.138
297304.000			-46.236			-5.137
297405.000			-46.235			-5.137
297504.000			-46.235			-5.137
297604.000			-46.236			-5.137
297705.000			-46.235			-5.137
297803.000			-46.235			-5.137
297904.000			-46.236			-5.137
298005.000			-46.236			-5.137
298104.000			-46.236			-5.137
298204.000			-46.236			-5.137
298304.000			-46.234			-5.137
298404.000			-46.233			-5.137
298505.000			-46.233			-5.137
298604.000			-46.233			-5.137
298703.000			-46.233			-5.137
298805.000			-46.233			-5.137
298903.000			-46.231			-5.137
299004.000			-46.231			-5.137
299105.000			-46.232			-5.137
299204.000			-46.232			-5.137
299304.000			-46.231			-5.137
299405.000			-46.231			-5.137
299504.000			-46.230			-5.137
299604.000			-46.230			-5.137
299705.000			-46.230			-5.137
299803.000			-46.230			-5.137
299904.000			-46.230			-5.137
