# Acquired on 10/01/2024 12:31:07 
# SPIDER: Creep_5mm_07714532B-1
# CREEP MEASUREMENT

# time [ms]		force [N]		stiffness [N/mm]
1.000			-17.492			-3.498
100.000			-18.624			-3.725
200.000			-19.032			-3.806
301.000			-19.028			-3.806
400.000			-18.936			-3.787
500.000			-18.861			-3.772
602.000			-18.747			-3.749
701.000			-18.699			-3.740
800.000			-18.658			-3.732
901.000			-18.623			-3.725
1000.000			-18.590			-3.718
1100.000			-18.559			-3.712
1201.000			-18.530			-3.706
1300.000			-18.480			-3.696
1402.000			-18.457			-3.691
1501.000			-18.436			-3.687
1600.000			-18.417			-3.683
1701.000			-18.398			-3.680
1800.000			-18.380			-3.676
1900.000			-18.363			-3.673
2001.000			-18.331			-3.666
2101.000			-18.315			-3.663
2201.000			-18.300			-3.660
2301.000			-18.286			-3.657
2400.000			-18.274			-3.655
2500.000			-18.260			-3.652
2601.000			-18.249			-3.650
2700.000			-18.236			-3.647
2800.000			-18.213			-3.643
2902.000			-18.201			-3.640
3001.000			-18.192			-3.638
3100.000			-18.182			-3.636
3201.000			-18.171			-3.634
3300.000			-18.161			-3.632
3400.000			-18.152			-3.630
3501.000			-18.134			-3.627
3601.000			-18.124			-3.625
3701.000			-18.116			-3.623
3801.000			-18.109			-3.622
3900.000			-18.100			-3.620
4000.000			-18.092			-3.618
4101.000			-18.083			-3.617
4200.000			-18.068			-3.614
4300.000			-18.061			-3.612
4402.000			-18.054			-3.611
4501.000			-18.048			-3.610
4600.000			-18.040			-3.608
4700.000			-18.033			-3.607
4800.000			-18.027			-3.605
4901.000			-18.020			-3.604
5000.000			-18.007			-3.601
5100.000			-18.002			-3.600
5202.000			-17.996			-3.599
5301.000			-17.990			-3.598
5400.000			-17.983			-3.597
5501.000			-17.978			-3.596
5600.000			-17.973			-3.595
5700.000			-17.960			-3.592
5801.000			-17.955			-3.591
5901.000			-17.949			-3.590
6001.000			-17.944			-3.589
6101.000			-17.939			-3.588
6200.000			-17.935			-3.587
6300.000			-17.930			-3.586
6401.000			-17.920			-3.584
6500.000			-17.915			-3.583
6600.000			-17.910			-3.582
6702.000			-17.905			-3.581
6801.000			-17.901			-3.580
6900.000			-17.897			-3.579
7001.000			-17.892			-3.578
7100.000			-17.883			-3.577
7200.000			-17.879			-3.576
7301.000			-17.874			-3.575
7400.000			-17.870			-3.574
7501.000			-17.866			-3.573
7602.000			-17.862			-3.572
7700.000			-17.857			-3.571
7800.000			-17.854			-3.571
7900.000			-17.846			-3.569
8000.000			-17.842			-3.568
8101.000			-17.838			-3.568
8200.000			-17.833			-3.567
8301.000			-17.829			-3.566
8402.000			-17.826			-3.565
8500.000			-17.822			-3.564
8600.000			-17.814			-3.563
8701.000			-17.811			-3.562
8800.000			-17.808			-3.562
8900.000			-17.806			-3.561
9001.000			-17.802			-3.560
9101.000			-17.798			-3.560
9201.000			-17.794			-3.559
9301.000			-17.789			-3.558
9400.000			-17.785			-3.557
9500.000			-17.781			-3.556
9601.000			-17.778			-3.556
9700.000			-17.775			-3.555
9800.000			-17.772			-3.554
9902.000			-17.768			-3.554
10001.000			-17.764			-3.553
10100.000			-17.759			-3.552
10201.000			-17.756			-3.551
10300.000			-17.752			-3.550
10400.000			-17.749			-3.550
10501.000			-17.746			-3.549
10600.000			-17.744			-3.549
10701.000			-17.741			-3.548
10802.000			-17.735			-3.547
10900.000			-17.733			-3.547
11000.000			-17.731			-3.546
11100.000			-17.726			-3.545
11200.000			-17.723			-3.545
11301.000			-17.721			-3.544
11400.000			-17.718			-3.544
11501.000			-17.713			-3.543
11602.000			-17.709			-3.542
11700.000			-17.707			-3.541
11800.000			-17.705			-3.541
11901.000			-17.701			-3.540
12000.000			-17.699			-3.540
12100.000			-17.696			-3.539
12201.000			-17.691			-3.538
12301.000			-17.689			-3.538
12401.000			-17.687			-3.537
12501.000			-17.684			-3.537
12600.000			-17.681			-3.536
12700.000			-17.678			-3.536
12801.000			-17.677			-3.535
12900.000			-17.675			-3.535
13000.000			-17.670			-3.534
13102.000			-17.667			-3.533
13201.000			-17.665			-3.533
13300.000			-17.663			-3.533
13401.000			-17.661			-3.532
13500.000			-17.657			-3.531
13600.000			-17.654			-3.531
13701.000			-17.651			-3.530
13800.000			-17.649			-3.530
13901.000			-17.647			-3.529
14002.000			-17.643			-3.529
14100.000			-17.641			-3.528
14200.000			-17.640			-3.528
14300.000			-17.638			-3.528
14400.000			-17.634			-3.527
14501.000			-17.631			-3.526
14600.000			-17.628			-3.526
14701.000			-17.627			-3.525
14802.000			-17.625			-3.525
14900.000			-17.623			-3.525
15000.000			-17.621			-3.524
15101.000			-17.617			-3.523
15200.000			-17.616			-3.523
15300.000			-17.614			-3.523
15401.000			-17.610			-3.522
15501.000			-17.608			-3.522
15601.000			-17.607			-3.521
15701.000			-17.605			-3.521
15800.000			-17.603			-3.521
15900.000			-17.599			-3.520
16001.000			-17.596			-3.519
16100.000			-17.595			-3.519
16200.000			-17.593			-3.519
16302.000			-17.590			-3.518
16401.000			-17.589			-3.518
16500.000			-17.587			-3.517
16601.000			-17.584			-3.517
16700.000			-17.582			-3.516
16800.000			-17.579			-3.516
16901.000			-17.578			-3.516
17000.000			-17.577			-3.515
17101.000			-17.575			-3.515
17202.000			-17.573			-3.515
17300.000			-17.569			-3.514
17400.000			-17.567			-3.513
17500.000			-17.565			-3.513
17600.000			-17.564			-3.513
17701.000			-17.562			-3.512
17800.000			-17.560			-3.512
17901.000			-17.558			-3.512
18002.000			-17.555			-3.511
18100.000			-17.553			-3.511
18200.000			-17.551			-3.510
18301.000			-17.550			-3.510
18400.000			-17.548			-3.510
18500.000			-17.546			-3.509
18601.000			-17.545			-3.509
18701.000			-17.544			-3.509
18801.000			-17.539			-3.508
18901.000			-17.538			-3.508
19000.000			-17.536			-3.507
19100.000			-17.535			-3.507
19201.000			-17.533			-3.507
19300.000			-17.532			-3.506
19400.000			-17.530			-3.506
19502.000			-17.527			-3.505
19601.000			-17.525			-3.505
19701.000			-17.524			-3.505
19801.000			-17.522			-3.504
19900.000			-17.520			-3.504
20000.000			-17.518			-3.504
20101.000			-17.516			-3.503
20200.000			-17.514			-3.503
20301.000			-17.513			-3.503
20402.000			-17.512			-3.502
20501.000			-17.509			-3.502
20600.000			-17.507			-3.501
20700.000			-17.507			-3.501
20800.000			-17.504			-3.501
20901.000			-17.503			-3.501
21000.000			-17.501			-3.500
21101.000			-17.500			-3.500
21202.000			-17.497			-3.499
21300.000			-17.495			-3.499
21400.000			-17.493			-3.499
21501.000			-17.492			-3.498
21600.000			-17.491			-3.498
21700.000			-17.487			-3.497
21801.000			-17.487			-3.497
21901.000			-17.486			-3.497
22001.000			-17.484			-3.497
22101.000			-17.482			-3.496
22200.000			-17.481			-3.496
22300.000			-17.480			-3.496
22401.000			-17.478			-3.496
22500.000			-17.476			-3.495
22600.000			-17.475			-3.495
22702.000			-17.474			-3.495
22801.000			-17.473			-3.495
22900.000			-17.471			-3.494
23001.000			-17.469			-3.494
23100.000			-17.467			-3.493
23200.000			-17.465			-3.493
23301.000			-17.464			-3.493
23400.000			-17.462			-3.492
23501.000			-17.460			-3.492
23602.000			-17.460			-3.492
23700.000			-17.459			-3.492
23800.000			-17.458			-3.492
23900.000			-17.455			-3.491
24000.000			-17.453			-3.491
24101.000			-17.451			-3.490
24200.000			-17.451			-3.490
24301.000			-17.450			-3.490
24402.000			-17.448			-3.490
24500.000			-17.447			-3.489
24600.000			-17.445			-3.489
24701.000			-17.443			-3.489
24800.000			-17.442			-3.488
24900.000			-17.441			-3.488
25001.000			-17.440			-3.488
25101.000			-17.439			-3.488
25201.000			-17.438			-3.488
25301.000			-17.435			-3.487
25400.000			-17.433			-3.487
25500.000			-17.432			-3.486
25601.000			-17.433			-3.487
25700.000			-17.430			-3.486
25800.000			-17.429			-3.486
25902.000			-17.427			-3.485
26001.000			-17.425			-3.485
26100.000			-17.424			-3.485
26201.000			-17.423			-3.485
26300.000			-17.422			-3.484
26400.000			-17.421			-3.484
26501.000			-17.420			-3.484
26600.000			-17.419			-3.484
26701.000			-17.417			-3.483
26802.000			-17.414			-3.483
26900.000			-17.413			-3.483
27000.000			-17.412			-3.482
27100.000			-17.412			-3.482
27200.000			-17.409			-3.482
27301.000			-17.408			-3.482
27400.000			-17.407			-3.481
27501.000			-17.405			-3.481
27602.000			-17.404			-3.481
27700.000			-17.404			-3.481
27800.000			-17.402			-3.480
27901.000			-17.400			-3.480
28000.000			-17.399			-3.480
28100.000			-17.397			-3.479
28201.000			-17.395			-3.479
28301.000			-17.393			-3.479
28401.000			-17.394			-3.479
28501.000			-17.394			-3.479
28600.000			-17.393			-3.479
28700.000			-17.392			-3.478
28801.000			-17.389			-3.478
28900.000			-17.387			-3.477
29000.000			-17.385			-3.477
29102.000			-17.385			-3.477
29201.000			-17.384			-3.477
29300.000			-17.384			-3.477
29401.000			-17.382			-3.476
29500.000			-17.381			-3.476
29600.000			-17.380			-3.476
29701.000			-17.377			-3.475
29800.000			-17.376			-3.475
29901.000			-17.374			-3.475
30002.000			-17.374			-3.475
30100.000			-17.374			-3.475
30200.000			-17.373			-3.475
30300.000			-17.372			-3.474
30400.000			-17.369			-3.474
30501.000			-17.368			-3.474
30600.000			-17.367			-3.473
30701.000			-17.367			-3.473
30802.000			-17.365			-3.473
30900.000			-17.364			-3.473
31000.000			-17.364			-3.473
31101.000			-17.361			-3.472
31200.000			-17.361			-3.472
31300.000			-17.359			-3.472
31401.000			-17.359			-3.472
31501.000			-17.358			-3.472
31601.000			-17.357			-3.471
31701.000			-17.356			-3.471
31800.000			-17.355			-3.471
31900.000			-17.353			-3.471
32001.000			-17.352			-3.470
32100.000			-17.350			-3.470
32200.000			-17.349			-3.470
32302.000			-17.348			-3.470
32401.000			-17.348			-3.470
32500.000			-17.347			-3.469
32601.000			-17.344			-3.469
32700.000			-17.344			-3.469
32800.000			-17.344			-3.469
32901.000			-17.343			-3.469
33000.000			-17.342			-3.468
33101.000			-17.341			-3.468
33202.000			-17.340			-3.468
33300.000			-17.337			-3.467
33400.000			-17.335			-3.467
33500.000			-17.335			-3.467
33600.000			-17.335			-3.467
33701.000			-17.334			-3.467
33800.000			-17.332			-3.466
33901.000			-17.332			-3.466
34002.000			-17.330			-3.466
34100.000			-17.329			-3.466
34200.000			-17.329			-3.466
34301.000			-17.328			-3.466
34400.000			-17.327			-3.465
34500.000			-17.325			-3.465
34602.000			-17.324			-3.465
34701.000			-17.323			-3.465
34800.000			-17.322			-3.464
34901.000			-17.320			-3.464
35000.000			-17.320			-3.464
35100.000			-17.319			-3.464
35201.000			-17.318			-3.464
35300.000			-17.318			-3.464
35401.000			-17.316			-3.463
35502.000			-17.315			-3.463
35600.000			-17.315			-3.463
35700.000			-17.315			-3.463
35801.000			-17.312			-3.462
35900.000			-17.311			-3.462
36000.000			-17.311			-3.462
36101.000			-17.310			-3.462
36201.000			-17.308			-3.462
36301.000			-17.308			-3.462
36401.000			-17.307			-3.461
36500.000			-17.306			-3.461
36600.000			-17.304			-3.461
36700.000			-17.303			-3.461
36800.000			-17.303			-3.461
36901.000			-17.300			-3.460
37001.000			-17.300			-3.460
37101.000			-17.300			-3.460
37201.000			-17.298			-3.460
37300.000			-17.298			-3.460
37400.000			-17.296			-3.459
37501.000			-17.296			-3.459
37600.000			-17.295			-3.459
37700.000			-17.293			-3.459
37801.000			-17.292			-3.458
37901.000			-17.291			-3.458
38001.000			-17.290			-3.458
38101.000			-17.289			-3.458
38200.000			-17.289			-3.458
38300.000			-17.288			-3.458
38401.000			-17.287			-3.457
38500.000			-17.287			-3.457
38600.000			-17.285			-3.457
38702.000			-17.284			-3.457
38801.000			-17.283			-3.457
38900.000			-17.283			-3.457
39001.000			-17.282			-3.456
39100.000			-17.280			-3.456
39200.000			-17.279			-3.456
39301.000			-17.279			-3.456
39400.000			-17.278			-3.456
39501.000			-17.278			-3.456
39602.000			-17.277			-3.455
39700.000			-17.275			-3.455
39800.000			-17.274			-3.455
39900.000			-17.274			-3.455
40000.000			-17.273			-3.455
40101.000			-17.272			-3.454
40200.000			-17.271			-3.454
40301.000			-17.270			-3.454
40402.000			-17.270			-3.454
40500.000			-17.268			-3.454
40600.000			-17.267			-3.453
40701.000			-17.267			-3.453
40800.000			-17.266			-3.453
40900.000			-17.265			-3.453
41001.000			-17.264			-3.453
41101.000			-17.263			-3.453
41201.000			-17.262			-3.452
41301.000			-17.261			-3.452
41400.000			-17.261			-3.452
41500.000			-17.260			-3.452
41601.000			-17.260			-3.452
41700.000			-17.259			-3.452
41800.000			-17.259			-3.452
41902.000			-17.257			-3.451
42001.000			-17.255			-3.451
42100.000			-17.255			-3.451
42201.000			-17.254			-3.451
42300.000			-17.254			-3.451
42400.000			-17.252			-3.450
42501.000			-17.251			-3.450
42600.000			-17.250			-3.450
42701.000			-17.250			-3.450
42802.000			-17.247			-3.449
42900.000			-17.246			-3.449
43000.000			-17.245			-3.449
43100.000			-17.245			-3.449
43200.000			-17.244			-3.449
43301.000			-17.244			-3.449
43400.000			-17.243			-3.449
43501.000			-17.241			-3.448
43602.000			-17.240			-3.448
43700.000			-17.240			-3.448
43800.000			-17.239			-3.448
43901.000			-17.239			-3.448
44000.000			-17.239			-3.448
44100.000			-17.237			-3.447
44201.000			-17.236			-3.447
44301.000			-17.234			-3.447
44401.000			-17.234			-3.447
44501.000			-17.232			-3.446
44600.000			-17.232			-3.446
44700.000			-17.232			-3.446
44801.000			-17.232			-3.446
44900.000			-17.230			-3.446
45000.000			-17.229			-3.446
45102.000			-17.230			-3.446
45201.000			-17.230			-3.446
45300.000			-17.229			-3.446
45401.000			-17.228			-3.446
45500.000			-17.227			-3.445
45600.000			-17.225			-3.445
45701.000			-17.225			-3.445
45800.000			-17.224			-3.445
45901.000			-17.223			-3.445
46002.000			-17.222			-3.444
46100.000			-17.221			-3.444
46200.000			-17.220			-3.444
46300.000			-17.221			-3.444
46400.000			-17.220			-3.444
46501.000			-17.219			-3.444
46601.000			-17.217			-3.443
46701.000			-17.218			-3.444
46801.000			-17.218			-3.444
46900.000			-17.216			-3.443
47000.000			-17.215			-3.443
47101.000			-17.215			-3.443
47200.000			-17.213			-3.443
47300.000			-17.212			-3.442
47402.000			-17.212			-3.442
47501.000			-17.212			-3.442
47600.000			-17.211			-3.442
47701.000			-17.210			-3.442
47800.000			-17.209			-3.442
47900.000			-17.209			-3.442
48001.000			-17.208			-3.442
48100.000			-17.207			-3.441
48201.000			-17.207			-3.441
48302.000			-17.207			-3.441
48401.000			-17.206			-3.441
48500.000			-17.205			-3.441
48601.000			-17.204			-3.441
48700.000			-17.204			-3.441
48800.000			-17.203			-3.441
48901.000			-17.202			-3.440
49001.000			-17.201			-3.440
49101.000			-17.200			-3.440
49201.000			-17.200			-3.440
49300.000			-17.198			-3.440
49400.000			-17.197			-3.439
49500.000			-17.197			-3.439
49600.000			-17.195			-3.439
49701.000			-17.195			-3.439
49800.000			-17.195			-3.439
49901.000			-17.195			-3.439
50002.000			-17.192			-3.438
50100.000			-17.192			-3.438
50200.000			-17.192			-3.438
50301.000			-17.191			-3.438
50400.000			-17.190			-3.438
50500.000			-17.189			-3.438
50601.000			-17.188			-3.438
50701.000			-17.187			-3.437
50801.000			-17.187			-3.437
50901.000			-17.187			-3.437
51000.000			-17.186			-3.437
51100.000			-17.185			-3.437
51201.000			-17.184			-3.437
51300.000			-17.184			-3.437
51400.000			-17.183			-3.437
51502.000			-17.182			-3.436
51601.000			-17.180			-3.436
51700.000			-17.180			-3.436
51801.000			-17.180			-3.436
51900.000			-17.180			-3.436
52000.000			-17.179			-3.436
52101.000			-17.179			-3.436
52200.000			-17.177			-3.435
52301.000			-17.176			-3.435
52402.000			-17.175			-3.435
52500.000			-17.175			-3.435
52600.000			-17.175			-3.435
52700.000			-17.174			-3.435
52800.000			-17.173			-3.435
52901.000			-17.173			-3.435
53000.000			-17.172			-3.434
53101.000			-17.170			-3.434
53202.000			-17.170			-3.434
53300.000			-17.169			-3.434
53400.000			-17.169			-3.434
53501.000			-17.168			-3.434
53600.000			-17.168			-3.434
53700.000			-17.168			-3.434
53801.000			-17.166			-3.433
53901.000			-17.166			-3.433
54001.000			-17.165			-3.433
54101.000			-17.165			-3.433
54200.000			-17.164			-3.433
54300.000			-17.163			-3.433
54401.000			-17.163			-3.433
54500.000			-17.163			-3.433
54600.000			-17.162			-3.432
54702.000			-17.161			-3.432
54801.000			-17.160			-3.432
54900.000			-17.160			-3.432
55001.000			-17.159			-3.432
55100.000			-17.159			-3.432
55200.000			-17.158			-3.432
55301.000			-17.158			-3.432
55400.000			-17.157			-3.431
55501.000			-17.156			-3.431
55602.000			-17.155			-3.431
55700.000			-17.154			-3.431
55800.000			-17.154			-3.431
55900.000			-17.152			-3.430
56000.000			-17.152			-3.430
56101.000			-17.153			-3.431
56201.000			-17.152			-3.430
56301.000			-17.153			-3.431
56402.000			-17.152			-3.430
56500.000			-17.151			-3.430
56600.000			-17.150			-3.430
56701.000			-17.150			-3.430
56800.000			-17.149			-3.430
56900.000			-17.148			-3.430
57001.000			-17.147			-3.429
57101.000			-17.146			-3.429
57201.000			-17.145			-3.429
57301.000			-17.145			-3.429
57400.000			-17.145			-3.429
57500.000			-17.145			-3.429
57601.000			-17.144			-3.429
57700.000			-17.143			-3.429
57800.000			-17.142			-3.428
57902.000			-17.142			-3.428
58001.000			-17.141			-3.428
58100.000			-17.140			-3.428
58201.000			-17.139			-3.428
58300.000			-17.140			-3.428
58400.000			-17.140			-3.428
58501.000			-17.138			-3.428
58600.000			-17.137			-3.427
58701.000			-17.136			-3.427
58802.000			-17.135			-3.427
58900.000			-17.136			-3.427
59000.000			-17.134			-3.427
59100.000			-17.133			-3.427
59200.000			-17.133			-3.427
59301.000			-17.133			-3.427
59400.000			-17.132			-3.426
59501.000			-17.131			-3.426
59602.000			-17.129			-3.426
59700.000			-17.129			-3.426
59800.000			-17.128			-3.426
59901.000			-17.127			-3.425
60000.000			-17.127			-3.425
60100.000			-17.127			-3.425
60201.000			-17.125			-3.425
60301.000			-17.125			-3.425
60401.000			-17.124			-3.425
60501.000			-17.123			-3.425
60600.000			-17.123			-3.425
60700.000			-17.123			-3.425
60801.000			-17.122			-3.424
60900.000			-17.120			-3.424
61000.000			-17.120			-3.424
61102.000			-17.120			-3.424
61201.000			-17.120			-3.424
61300.000			-17.119			-3.424
61401.000			-17.119			-3.424
61500.000			-17.117			-3.423
61600.000			-17.117			-3.423
61701.000			-17.117			-3.423
61801.000			-17.115			-3.423
61901.000			-17.115			-3.423
62001.000			-17.114			-3.423
62100.000			-17.114			-3.423
62200.000			-17.113			-3.423
62300.000			-17.112			-3.422
62400.000			-17.111			-3.422
62501.000			-17.111			-3.422
62601.000			-17.111			-3.422
62701.000			-17.110			-3.422
62801.000			-17.110			-3.422
62900.000			-17.109			-3.422
63000.000			-17.110			-3.422
63101.000			-17.109			-3.422
63200.000			-17.108			-3.422
63300.000			-17.109			-3.422
63402.000			-17.108			-3.422
63501.000			-17.108			-3.422
63600.000			-17.109			-3.422
63701.000			-17.109			-3.422
63800.000			-17.106			-3.421
63900.000			-17.105			-3.421
64001.000			-17.106			-3.421
64100.000			-17.106			-3.421
64201.000			-17.104			-3.421
64302.000			-17.105			-3.421
64400.000			-17.104			-3.421
64500.000			-17.103			-3.421
64601.000			-17.102			-3.420
64700.000			-17.101			-3.420
64800.000			-17.101			-3.420
64901.000			-17.101			-3.420
65001.000			-17.101			-3.420
65101.000			-17.100			-3.420
65201.000			-17.100			-3.420
65300.000			-17.099			-3.420
65400.000			-17.099			-3.420
65500.000			-17.097			-3.419
65600.000			-17.097			-3.419
65701.000			-17.097			-3.419
65801.000			-17.097			-3.419
65901.000			-17.097			-3.419
66001.000			-17.094			-3.419
66100.000			-17.095			-3.419
66200.000			-17.095			-3.419
66301.000			-17.095			-3.419
66400.000			-17.094			-3.419
66500.000			-17.092			-3.418
66602.000			-17.092			-3.418
66701.000			-17.091			-3.418
66800.000			-17.090			-3.418
66901.000			-17.090			-3.418
67000.000			-17.090			-3.418
67100.000			-17.090			-3.418
67201.000			-17.089			-3.418
67300.000			-17.088			-3.418
67401.000			-17.088			-3.418
67502.000			-17.087			-3.417
67601.000			-17.086			-3.417
67700.000			-17.086			-3.417
67801.000			-17.086			-3.417
67900.000			-17.085			-3.417
68000.000			-17.084			-3.417
68101.000			-17.084			-3.417
68200.000			-17.083			-3.417
68301.000			-17.082			-3.416
68402.000			-17.082			-3.416
68500.000			-17.081			-3.416
68600.000			-17.081			-3.416
68700.000			-17.080			-3.416
68800.000			-17.079			-3.416
68901.000			-17.079			-3.416
69000.000			-17.079			-3.416
69101.000			-17.078			-3.416
69202.000			-17.077			-3.415
69300.000			-17.077			-3.415
69400.000			-17.077			-3.415
69501.000			-17.076			-3.415
69600.000			-17.074			-3.415
69700.000			-17.074			-3.415
69801.000			-17.074			-3.415
69901.000			-17.074			-3.415
70001.000			-17.073			-3.415
70101.000			-17.073			-3.415
70200.000			-17.073			-3.415
70300.000			-17.072			-3.414
70401.000			-17.072			-3.414
70500.000			-17.071			-3.414
70600.000			-17.071			-3.414
70702.000			-17.071			-3.414
70801.000			-17.069			-3.414
70900.000			-17.070			-3.414
71001.000			-17.070			-3.414
71100.000			-17.067			-3.413
71200.000			-17.068			-3.414
71301.000			-17.067			-3.413
71400.000			-17.067			-3.413
71501.000			-17.067			-3.413
71602.000			-17.067			-3.413
71700.000			-17.066			-3.413
71800.000			-17.065			-3.413
71900.000			-17.065			-3.413
72000.000			-17.065			-3.413
72101.000			-17.064			-3.413
72200.000			-17.063			-3.413
72301.000			-17.062			-3.412
72402.000			-17.063			-3.413
72501.000			-17.063			-3.413
72600.000			-17.062			-3.412
72701.000			-17.060			-3.412
72800.000			-17.060			-3.412
72900.000			-17.060			-3.412
73001.000			-17.059			-3.412
73100.000			-17.059			-3.412
73201.000			-17.058			-3.412
73302.000			-17.057			-3.411
73400.000			-17.057			-3.411
73500.000			-17.057			-3.411
73601.000			-17.056			-3.411
73700.000			-17.055			-3.411
73800.000			-17.055			-3.411
73901.000			-17.055			-3.411
74001.000			-17.055			-3.411
74101.000			-17.053			-3.411
74201.000			-17.053			-3.411
74300.000			-17.053			-3.411
74400.000			-17.052			-3.410
74501.000			-17.052			-3.410
74600.000			-17.052			-3.410
74700.000			-17.051			-3.410
74802.000			-17.050			-3.410
74901.000			-17.050			-3.410
75000.000			-17.050			-3.410
75100.000			-17.050			-3.410
75200.000			-17.049			-3.410
75301.000			-17.048			-3.410
75400.000			-17.048			-3.410
75500.000			-17.046			-3.409
75602.000			-17.047			-3.409
75701.000			-17.046			-3.409
75800.000			-17.046			-3.409
75901.000			-17.046			-3.409
76000.000			-17.045			-3.409
76100.000			-17.046			-3.409
76201.000			-17.044			-3.409
76300.000			-17.043			-3.409
76401.000			-17.043			-3.409
76502.000			-17.043			-3.409
76600.000			-17.043			-3.409
76700.000			-17.042			-3.408
76801.000			-17.042			-3.408
76900.000			-17.041			-3.408
77000.000			-17.041			-3.408
77101.000			-17.040			-3.408
77201.000			-17.039			-3.408
77301.000			-17.039			-3.408
77401.000			-17.038			-3.408
77500.000			-17.038			-3.408
77600.000			-17.037			-3.407
77701.000			-17.037			-3.407
77800.000			-17.036			-3.407
77900.000			-17.036			-3.407
78001.000			-17.036			-3.407
78101.000			-17.034			-3.407
78202.000			-17.035			-3.407
78300.000			-17.034			-3.407
78400.000			-17.034			-3.407
78501.000			-17.034			-3.407
78600.000			-17.033			-3.407
78700.000			-17.033			-3.407
78801.000			-17.032			-3.406
78901.000			-17.031			-3.406
79001.000			-17.032			-3.406
79101.000			-17.031			-3.406
79200.000			-17.031			-3.406
79300.000			-17.030			-3.406
79401.000			-17.029			-3.406
79500.000			-17.029			-3.406
79600.000			-17.028			-3.406
79702.000			-17.028			-3.406
79801.000			-17.028			-3.406
79900.000			-17.027			-3.405
80001.000			-17.027			-3.405
80100.000			-17.026			-3.405
80200.000			-17.026			-3.405
80301.000			-17.026			-3.405
80400.000			-17.026			-3.405
80501.000			-17.023			-3.405
80602.000			-17.024			-3.405
80700.000			-17.023			-3.405
80800.000			-17.023			-3.405
80901.000			-17.023			-3.405
81000.000			-17.022			-3.404
81100.000			-17.022			-3.404
81201.000			-17.023			-3.405
81301.000			-17.020			-3.404
81402.000			-17.019			-3.404
81500.000			-17.019			-3.404
81600.000			-17.020			-3.404
81701.000			-17.019			-3.404
81800.000			-17.019			-3.404
81900.000			-17.018			-3.404
82001.000			-17.017			-3.403
82101.000			-17.017			-3.403
82201.000			-17.016			-3.403
82301.000			-17.015			-3.403
82400.000			-17.015			-3.403
82500.000			-17.015			-3.403
82601.000			-17.015			-3.403
82700.000			-17.014			-3.403
82800.000			-17.015			-3.403
82902.000			-17.014			-3.403
83001.000			-17.013			-3.403
83100.000			-17.013			-3.403
83201.000			-17.013			-3.403
83300.000			-17.012			-3.402
83400.000			-17.012			-3.402
83501.000			-17.012			-3.402
83600.000			-17.011			-3.402
83701.000			-17.010			-3.402
83802.000			-17.009			-3.402
83900.000			-17.009			-3.402
84000.000			-17.009			-3.402
84101.000			-17.008			-3.402
84200.000			-17.007			-3.401
84300.000			-17.007			-3.401
84401.000			-17.006			-3.401
84501.000			-17.005			-3.401
84602.000			-17.005			-3.401
84700.000			-17.005			-3.401
84800.000			-17.005			-3.401
84901.000			-17.005			-3.401
85000.000			-17.004			-3.401
85100.000			-17.003			-3.401
85201.000			-17.003			-3.401
85301.000			-17.003			-3.401
85401.000			-17.002			-3.400
85501.000			-17.002			-3.400
85600.000			-17.001			-3.400
85700.000			-17.002			-3.400
85801.000			-17.001			-3.400
85900.000			-17.000			-3.400
86000.000			-17.000			-3.400
86102.000			-17.000			-3.400
86201.000			-16.999			-3.400
86300.000			-16.999			-3.400
86401.000			-16.998			-3.400
86500.000			-16.998			-3.400
86600.000			-16.999			-3.400
86701.000			-16.997			-3.399
86800.000			-16.996			-3.399
86900.000			-16.995			-3.399
87002.000			-16.996			-3.399
87101.000			-16.994			-3.399
87200.000			-16.995			-3.399
87301.000			-16.995			-3.399
87400.000			-16.994			-3.399
87500.000			-16.994			-3.399
87601.000			-16.994			-3.399
87700.000			-16.994			-3.399
87802.000			-16.993			-3.399
87901.000			-16.992			-3.398
88001.000			-16.991			-3.398
88101.000			-16.991			-3.398
88200.000			-16.990			-3.398
88300.000			-16.990			-3.398
88401.000			-16.990			-3.398
88500.000			-16.989			-3.398
88600.000			-16.989			-3.398
88702.000			-16.990			-3.398
88801.000			-16.988			-3.398
88901.000			-16.988			-3.398
89001.000			-16.988			-3.398
89100.000			-16.987			-3.397
89200.000			-16.987			-3.397
89301.000			-16.986			-3.397
89400.000			-16.986			-3.397
89500.000			-16.987			-3.397
89602.000			-16.987			-3.397
89701.000			-16.985			-3.397
89801.000			-16.985			-3.397
89901.000			-16.985			-3.397
90000.000			-16.984			-3.397
90100.000			-16.984			-3.397
90201.000			-16.984			-3.397
90300.000			-16.984			-3.397
90400.000			-16.983			-3.397
90502.000			-16.982			-3.396
90601.000			-16.981			-3.396
90700.000			-16.982			-3.396
90801.000			-16.982			-3.396
90900.000			-16.981			-3.396
91000.000			-16.980			-3.396
91100.000			-16.980			-3.396
91200.000			-16.980			-3.396
91302.000			-16.979			-3.396
91401.000			-16.978			-3.396
91501.000			-16.978			-3.396
91601.000			-16.978			-3.396
91700.000			-16.978			-3.396
91800.000			-16.977			-3.395
91901.000			-16.977			-3.395
92000.000			-16.977			-3.395
92100.000			-16.977			-3.395
92202.000			-16.976			-3.395
92301.000			-16.976			-3.395
92400.000			-16.975			-3.395
92501.000			-16.975			-3.395
92600.000			-16.975			-3.395
92700.000			-16.974			-3.395
92801.000			-16.974			-3.395
92900.000			-16.974			-3.395
93000.000			-16.973			-3.395
93102.000			-16.972			-3.394
93201.000			-16.971			-3.394
93300.000			-16.972			-3.394
93401.000			-16.972			-3.394
93500.000			-16.971			-3.394
93600.000			-16.970			-3.394
93701.000			-16.970			-3.394
93800.000			-16.970			-3.394
93901.000			-16.968			-3.394
94002.000			-16.969			-3.394
94101.000			-16.969			-3.394
94200.000			-16.968			-3.394
94300.000			-16.967			-3.393
94400.000			-16.967			-3.393
94501.000			-16.967			-3.393
94600.000			-16.966			-3.393
94700.000			-16.966			-3.393
94802.000			-16.966			-3.393
94901.000			-16.965			-3.393
95000.000			-16.965			-3.393
95101.000			-16.965			-3.393
95200.000			-16.964			-3.393
95300.000			-16.963			-3.393
95401.000			-16.962			-3.392
95500.000			-16.963			-3.393
95600.000			-16.963			-3.393
95702.000			-16.963			-3.393
95801.000			-16.962			-3.392
95900.000			-16.961			-3.392
96001.000			-16.961			-3.392
96100.000			-16.961			-3.392
96200.000			-16.960			-3.392
96301.000			-16.960			-3.392
96400.000			-16.959			-3.392
96501.000			-16.958			-3.392
96602.000			-16.958			-3.392
96700.000			-16.958			-3.392
96800.000			-16.958			-3.392
96901.000			-16.958			-3.392
97000.000			-16.957			-3.391
97100.000			-16.957			-3.391
97201.000			-16.957			-3.391
97300.000			-16.956			-3.391
97402.000			-16.956			-3.391
97501.000			-16.955			-3.391
97600.000			-16.955			-3.391
97701.000			-16.954			-3.391
97800.000			-16.954			-3.391
97900.000			-16.953			-3.391
98001.000			-16.953			-3.391
98100.000			-16.954			-3.391
98200.000			-16.953			-3.391
98302.000			-16.952			-3.390
98401.000			-16.951			-3.390
98500.000			-16.952			-3.390
98601.000			-16.951			-3.390
98700.000			-16.951			-3.390
98800.000			-16.950			-3.390
98901.000			-16.949			-3.390
99000.000			-16.949			-3.390
99101.000			-16.950			-3.390
99202.000			-16.949			-3.390
99301.000			-16.949			-3.390
99400.000			-16.947			-3.389
99501.000			-16.947			-3.389
99600.000			-16.948			-3.390
99700.000			-16.948			-3.390
99801.000			-16.947			-3.389
99900.000			-16.947			-3.389
100001.000			-16.947			-3.389
100102.000			-16.947			-3.389
100200.000			-16.945			-3.389
100300.000			-16.944			-3.389
100401.000			-16.944			-3.389
100500.000			-16.944			-3.389
100600.000			-16.944			-3.389
100700.000			-16.944			-3.389
100800.000			-16.945			-3.389
100902.000			-16.943			-3.389
101001.000			-16.943			-3.389
101100.000			-16.942			-3.388
101201.000			-16.942			-3.388
101300.000			-16.943			-3.389
101400.000			-16.942			-3.388
101501.000			-16.941			-3.388
101600.000			-16.940			-3.388
101701.000			-16.939			-3.388
101802.000			-16.939			-3.388
101900.000			-16.939			-3.388
102000.000			-16.939			-3.388
102101.000			-16.939			-3.388
102200.000			-16.938			-3.388
102300.000			-16.938			-3.388
102401.000			-16.938			-3.388
102500.000			-16.937			-3.387
102601.000			-16.937			-3.387
102702.000			-16.936			-3.387
102800.000			-16.936			-3.387
102900.000			-16.936			-3.387
103001.000			-16.935			-3.387
103100.000			-16.935			-3.387
103200.000			-16.935			-3.387
103301.000			-16.934			-3.387
103401.000			-16.934			-3.387
103501.000			-16.934			-3.387
103601.000			-16.933			-3.387
103700.000			-16.933			-3.387
103800.000			-16.932			-3.386
103900.000			-16.933			-3.387
104000.000			-16.933			-3.387
104101.000			-16.932			-3.386
104200.000			-16.932			-3.386
104301.000			-16.931			-3.386
104402.000			-16.931			-3.386
104500.000			-16.930			-3.386
104600.000			-16.928			-3.386
104701.000			-16.928			-3.386
104800.000			-16.928			-3.386
104900.000			-16.929			-3.386
105001.000			-16.929			-3.386
105101.000			-16.929			-3.386
105201.000			-16.928			-3.386
105302.000			-16.928			-3.386
105400.000			-16.927			-3.385
105500.000			-16.927			-3.385
105601.000			-16.927			-3.385
105700.000			-16.927			-3.385
105800.000			-16.925			-3.385
105901.000			-16.925			-3.385
106001.000			-16.925			-3.385
106101.000			-16.924			-3.385
106201.000			-16.924			-3.385
106300.000			-16.924			-3.385
106400.000			-16.922			-3.384
106501.000			-16.922			-3.384
106600.000			-16.923			-3.385
106700.000			-16.923			-3.385
106801.000			-16.922			-3.384
106901.000			-16.922			-3.384
107002.000			-16.922			-3.384
107100.000			-16.922			-3.384
107200.000			-16.921			-3.384
107301.000			-16.920			-3.384
107400.000			-16.920			-3.384
107500.000			-16.920			-3.384
107601.000			-16.920			-3.384
107701.000			-16.919			-3.384
107801.000			-16.918			-3.384
107901.000			-16.917			-3.383
108000.000			-16.918			-3.384
108100.000			-16.918			-3.384
108201.000			-16.918			-3.384
108300.000			-16.917			-3.383
108400.000			-16.917			-3.383
108501.000			-16.918			-3.384
108601.000			-16.917			-3.383
108701.000			-16.917			-3.383
108801.000			-16.915			-3.383
108900.000			-16.914			-3.383
109000.000			-16.914			-3.383
109101.000			-16.914			-3.383
109200.000			-16.914			-3.383
109300.000			-16.914			-3.383
109402.000			-16.914			-3.383
109501.000			-16.913			-3.383
109601.000			-16.913			-3.383
109701.000			-16.912			-3.382
109800.000			-16.912			-3.382
109900.000			-16.912			-3.382
110001.000			-16.911			-3.382
110100.000			-16.912			-3.382
110200.000			-16.912			-3.382
110302.000			-16.911			-3.382
110401.000			-16.912			-3.382
110501.000			-16.910			-3.382
110600.000			-16.909			-3.382
110700.000			-16.909			-3.382
110801.000			-16.909			-3.382
110900.000			-16.908			-3.382
111000.000			-16.909			-3.382
111102.000			-16.907			-3.381
111201.000			-16.907			-3.381
111300.000			-16.906			-3.381
111401.000			-16.907			-3.381
111500.000			-16.907			-3.381
111600.000			-16.906			-3.381
111701.000			-16.906			-3.381
111800.000			-16.906			-3.381
111900.000			-16.905			-3.381
112002.000			-16.905			-3.381
112101.000			-16.905			-3.381
112200.000			-16.904			-3.381
112301.000			-16.904			-3.381
112400.000			-16.904			-3.381
112500.000			-16.903			-3.381
112601.000			-16.903			-3.381
112700.000			-16.903			-3.381
112801.000			-16.902			-3.380
112902.000			-16.902			-3.380
113000.000			-16.902			-3.380
113100.000			-16.902			-3.380
113201.000			-16.901			-3.380
113300.000			-16.901			-3.380
113400.000			-16.901			-3.380
113500.000			-16.900			-3.380
113601.000			-16.900			-3.380
113702.000			-16.899			-3.380
113800.000			-16.899			-3.380
113900.000			-16.898			-3.380
114001.000			-16.899			-3.380
114100.000			-16.898			-3.380
114200.000			-16.897			-3.379
114301.000			-16.897			-3.379
114400.000			-16.898			-3.380
114501.000			-16.898			-3.380
114602.000			-16.897			-3.379
114700.000			-16.896			-3.379
114800.000			-16.895			-3.379
114901.000			-16.895			-3.379
115000.000			-16.896			-3.379
115100.000			-16.895			-3.379
115201.000			-16.894			-3.379
115300.000			-16.894			-3.379
115401.000			-16.894			-3.379
115502.000			-16.893			-3.379
115600.000			-16.893			-3.379
115700.000			-16.894			-3.379
115801.000			-16.894			-3.379
115900.000			-16.893			-3.379
116000.000			-16.893			-3.379
116101.000			-16.892			-3.378
116201.000			-16.892			-3.378
116301.000			-16.892			-3.378
116402.000			-16.891			-3.378
116500.000			-16.891			-3.378
116600.000			-16.891			-3.378
116700.000			-16.890			-3.378
116800.000			-16.889			-3.378
116901.000			-16.890			-3.378
117000.000			-16.889			-3.378
117101.000			-16.889			-3.378
117202.000			-16.889			-3.378
117301.000			-16.888			-3.378
117400.000			-16.887			-3.377
117501.000			-16.888			-3.378
117600.000			-16.887			-3.377
117700.000			-16.886			-3.377
117801.000			-16.885			-3.377
117900.000			-16.885			-3.377
118000.000			-16.884			-3.377
118102.000			-16.885			-3.377
118201.000			-16.885			-3.377
118300.000			-16.885			-3.377
118401.000			-16.885			-3.377
118500.000			-16.885			-3.377
118600.000			-16.884			-3.377
118701.000			-16.884			-3.377
118800.000			-16.882			-3.376
118901.000			-16.882			-3.376
119002.000			-16.883			-3.377
119101.000			-16.883			-3.377
119200.000			-16.883			-3.377
119301.000			-16.881			-3.376
119400.000			-16.880			-3.376
119500.000			-16.881			-3.376
119601.000			-16.881			-3.376
119700.000			-16.881			-3.376
119802.000			-16.880			-3.376
119901.000			-16.880			-3.376
120000.000			-16.879			-3.376
120101.000			-16.879			-3.376
120200.000			-16.879			-3.376
120300.000			-16.878			-3.376
120401.000			-16.878			-3.376
120500.000			-16.878			-3.376
120600.000			-16.878			-3.376
120702.000			-16.878			-3.376
120801.000			-16.877			-3.375
120900.000			-16.876			-3.375
121001.000			-16.876			-3.375
121100.000			-16.876			-3.375
121200.000			-16.876			-3.375
121301.000			-16.876			-3.375
121400.000			-16.876			-3.375
121500.000			-16.875			-3.375
121602.000			-16.876			-3.375
121701.000			-16.875			-3.375
121800.000			-16.874			-3.375
121901.000			-16.874			-3.375
122000.000			-16.873			-3.375
122100.000			-16.873			-3.375
122201.000			-16.873			-3.375
122300.000			-16.873			-3.375
122401.000			-16.873			-3.375
122502.000			-16.872			-3.374
122601.000			-16.871			-3.374
122700.000			-16.872			-3.374
122801.000			-16.871			-3.374
122900.000			-16.871			-3.374
123000.000			-16.871			-3.374
123100.000			-16.872			-3.374
123200.000			-16.872			-3.374
123302.000			-16.871			-3.374
123401.000			-16.869			-3.374
123500.000			-16.868			-3.374
123601.000			-16.868			-3.374
123700.000			-16.868			-3.374
123800.000			-16.868			-3.374
123901.000			-16.868			-3.374
124000.000			-16.868			-3.374
124100.000			-16.867			-3.373
124202.000			-16.867			-3.373
124301.000			-16.867			-3.373
124400.000			-16.867			-3.373
124501.000			-16.866			-3.373
124600.000			-16.866			-3.373
124700.000			-16.867			-3.373
124801.000			-16.865			-3.373
124900.000			-16.865			-3.373
125001.000			-16.865			-3.373
125102.000			-16.865			-3.373
125201.000			-16.865			-3.373
125300.000			-16.865			-3.373
125401.000			-16.864			-3.373
125500.000			-16.864			-3.373
125600.000			-16.862			-3.372
125701.000			-16.863			-3.373
125800.000			-16.862			-3.372
125901.000			-16.862			-3.372
126002.000			-16.861			-3.372
126101.000			-16.861			-3.372
126200.000			-16.861			-3.372
126300.000			-16.861			-3.372
126400.000			-16.860			-3.372
126501.000			-16.859			-3.372
126600.000			-16.860			-3.372
126700.000			-16.861			-3.372
126802.000			-16.861			-3.372
126901.000			-16.859			-3.372
127001.000			-16.859			-3.372
127101.000			-16.858			-3.372
127200.000			-16.858			-3.372
127300.000			-16.858			-3.372
127401.000			-16.858			-3.372
127500.000			-16.857			-3.371
127600.000			-16.857			-3.371
127702.000			-16.857			-3.371
127801.000			-16.857			-3.371
127901.000			-16.857			-3.371
128001.000			-16.856			-3.371
128100.000			-16.855			-3.371
128200.000			-16.855			-3.371
128301.000			-16.855			-3.371
128400.000			-16.855			-3.371
128500.000			-16.854			-3.371
128602.000			-16.854			-3.371
128701.000			-16.854			-3.371
128800.000			-16.853			-3.371
128901.000			-16.852			-3.370
129000.000			-16.852			-3.370
129100.000			-16.853			-3.371
129201.000			-16.852			-3.370
129300.000			-16.852			-3.370
129400.000			-16.852			-3.370
129502.000			-16.853			-3.371
129601.000			-16.853			-3.371
129701.000			-16.852			-3.370
129800.000			-16.852			-3.370
129900.000			-16.851			-3.370
130001.000			-16.850			-3.370
130100.000			-16.850			-3.370
130200.000			-16.851			-3.370
130301.000			-16.851			-3.370
130401.000			-16.851			-3.370
130501.000			-16.850			-3.370
130601.000			-16.848			-3.370
130700.000			-16.848			-3.370
130800.000			-16.848			-3.370
130901.000			-16.848			-3.370
131000.000			-16.848			-3.370
131100.000			-16.848			-3.370
131202.000			-16.847			-3.369
131301.000			-16.846			-3.369
131401.000			-16.847			-3.369
131501.000			-16.846			-3.369
131600.000			-16.846			-3.369
131700.000			-16.845			-3.369
131801.000			-16.845			-3.369
131900.000			-16.845			-3.369
132000.000			-16.845			-3.369
132102.000			-16.844			-3.369
132201.000			-16.844			-3.369
132301.000			-16.844			-3.369
132401.000			-16.844			-3.369
132500.000			-16.843			-3.369
132600.000			-16.844			-3.369
132700.000			-16.843			-3.369
132800.000			-16.843			-3.369
132901.000			-16.843			-3.369
133001.000			-16.842			-3.368
133101.000			-16.841			-3.368
133202.000			-16.840			-3.368
133300.000			-16.840			-3.368
133400.000			-16.841			-3.368
133501.000			-16.841			-3.368
133600.000			-16.840			-3.368
133700.000			-16.840			-3.368
133801.000			-16.840			-3.368
133901.000			-16.839			-3.368
134001.000			-16.838			-3.368
134102.000			-16.838			-3.368
134200.000			-16.838			-3.368
134300.000			-16.838			-3.368
134401.000			-16.837			-3.367
134500.000			-16.837			-3.367
134600.000			-16.837			-3.367
134701.000			-16.837			-3.367
134800.000			-16.836			-3.367
134901.000			-16.836			-3.367
135002.000			-16.835			-3.367
135101.000			-16.835			-3.367
135200.000			-16.835			-3.367
135301.000			-16.835			-3.367
135400.000			-16.835			-3.367
135500.000			-16.836			-3.367
135601.000			-16.836			-3.367
135700.000			-16.834			-3.367
135800.000			-16.834			-3.367
135902.000			-16.833			-3.367
136001.000			-16.833			-3.367
136101.000			-16.834			-3.367
136200.000			-16.834			-3.367
136300.000			-16.833			-3.367
136401.000			-16.833			-3.367
136500.000			-16.832			-3.366
136600.000			-16.833			-3.367
136701.000			-16.832			-3.366
136801.000			-16.831			-3.366
136901.000			-16.830			-3.366
137002.000			-16.830			-3.366
137100.000			-16.831			-3.366
137200.000			-16.831			-3.366
137301.000			-16.831			-3.366
137400.000			-16.830			-3.366
137500.000			-16.829			-3.366
137601.000			-16.830			-3.366
137700.000			-16.830			-3.366
137801.000			-16.830			-3.366
137902.000			-16.829			-3.366
138000.000			-16.828			-3.366
138100.000			-16.827			-3.365
138201.000			-16.827			-3.365
138300.000			-16.827			-3.365
138400.000			-16.828			-3.366
138501.000			-16.828			-3.366
138600.000			-16.828			-3.366
138701.000			-16.828			-3.366
138802.000			-16.827			-3.365
138901.000			-16.826			-3.365
139000.000			-16.826			-3.365
139100.000			-16.826			-3.365
139200.000			-16.826			-3.365
139301.000			-16.827			-3.365
139400.000			-16.824			-3.365
139500.000			-16.825			-3.365
139601.000			-16.825			-3.365
139701.000			-16.825			-3.365
139801.000			-16.825			-3.365
139901.000			-16.825			-3.365
140000.000			-16.824			-3.365
140100.000			-16.825			-3.365
140201.000			-16.824			-3.365
140300.000			-16.823			-3.365
140400.000			-16.823			-3.365
140501.000			-16.823			-3.365
140601.000			-16.822			-3.364
140701.000			-16.822			-3.364
140801.000			-16.821			-3.364
140900.000			-16.821			-3.364
141000.000			-16.822			-3.364
141101.000			-16.821			-3.364
141200.000			-16.821			-3.364
141300.000			-16.821			-3.364
141401.000			-16.821			-3.364
141501.000			-16.820			-3.364
141601.000			-16.820			-3.364
141701.000			-16.820			-3.364
141800.000			-16.819			-3.364
141900.000			-16.819			-3.364
142001.000			-16.819			-3.364
142100.000			-16.819			-3.364
142200.000			-16.818			-3.364
142300.000			-16.818			-3.364
142400.000			-16.818			-3.364
142502.000			-16.817			-3.363
142601.000			-16.817			-3.363
142700.000			-16.817			-3.363
142801.000			-16.817			-3.363
142900.000			-16.816			-3.363
143000.000			-16.816			-3.363
143101.000			-16.815			-3.363
143200.000			-16.816			-3.363
143300.000			-16.817			-3.363
143402.000			-16.817			-3.363
143501.000			-16.816			-3.363
143600.000			-16.815			-3.363
143701.000			-16.815			-3.363
143800.000			-16.814			-3.363
143900.000			-16.814			-3.363
144001.000			-16.814			-3.363
144100.000			-16.812			-3.362
144200.000			-16.812			-3.362
144302.000			-16.814			-3.363
144401.000			-16.813			-3.363
144500.000			-16.814			-3.363
144601.000			-16.812			-3.362
144700.000			-16.811			-3.362
144800.000			-16.811			-3.362
144901.000			-16.810			-3.362
145000.000			-16.810			-3.362
145100.000			-16.811			-3.362
145202.000			-16.811			-3.362
145301.000			-16.811			-3.362
145402.000			-16.810			-3.362
145500.000			-16.811			-3.362
145600.000			-16.810			-3.362
145701.000			-16.810			-3.362
145800.000			-16.810			-3.362
145900.000			-16.809			-3.362
146001.000			-16.809			-3.362
146100.000			-16.809			-3.362
146201.000			-16.808			-3.362
146302.000			-16.808			-3.362
146400.000			-16.808			-3.362
146500.000			-16.807			-3.361
146601.000			-16.807			-3.361
146700.000			-16.807			-3.361
146800.000			-16.807			-3.361
146901.000			-16.807			-3.361
147000.000			-16.807			-3.361
147100.000			-16.807			-3.361
147202.000			-16.806			-3.361
147301.000			-16.805			-3.361
147400.000			-16.806			-3.361
147501.000			-16.806			-3.361
147600.000			-16.806			-3.361
147700.000			-16.805			-3.361
147801.000			-16.805			-3.361
147900.000			-16.805			-3.361
148000.000			-16.804			-3.361
148102.000			-16.804			-3.361
148201.000			-16.804			-3.361
148300.000			-16.802			-3.360
148401.000			-16.802			-3.360
148500.000			-16.803			-3.361
148600.000			-16.803			-3.361
148700.000			-16.803			-3.361
148800.000			-16.801			-3.360
148901.000			-16.801			-3.360
149001.000			-16.801			-3.360
149101.000			-16.801			-3.360
149202.000			-16.801			-3.360
149300.000			-16.801			-3.360
149400.000			-16.800			-3.360
149501.000			-16.800			-3.360
149600.000			-16.800			-3.360
149700.000			-16.800			-3.360
149801.000			-16.800			-3.360
149900.000			-16.800			-3.360
150001.000			-16.799			-3.360
150102.000			-16.798			-3.360
150201.000			-16.798			-3.360
150300.000			-16.797			-3.359
150401.000			-16.798			-3.360
150500.000			-16.798			-3.360
150600.000			-16.798			-3.360
150701.000			-16.797			-3.359
150800.000			-16.796			-3.359
150900.000			-16.796			-3.359
151002.000			-16.797			-3.359
151101.000			-16.796			-3.359
151200.000			-16.795			-3.359
151301.000			-16.795			-3.359
151400.000			-16.795			-3.359
151500.000			-16.795			-3.359
151601.000			-16.795			-3.359
151700.000			-16.794			-3.359
151800.000			-16.794			-3.359
151902.000			-16.794			-3.359
152001.000			-16.794			-3.359
152102.000			-16.794			-3.359
152200.000			-16.793			-3.359
152300.000			-16.793			-3.359
152401.000			-16.793			-3.359
152500.000			-16.792			-3.358
152600.000			-16.793			-3.359
152701.000			-16.793			-3.359
152800.000			-16.793			-3.359
152901.000			-16.792			-3.358
153002.000			-16.791			-3.358
153101.000			-16.791			-3.358
153200.000			-16.791			-3.358
153301.000			-16.791			-3.358
153400.000			-16.791			-3.358
153500.000			-16.791			-3.358
153601.000			-16.791			-3.358
153700.000			-16.791			-3.358
153800.000			-16.790			-3.358
153902.000			-16.790			-3.358
154001.000			-16.789			-3.358
154100.000			-16.790			-3.358
154201.000			-16.790			-3.358
154300.000			-16.789			-3.358
154400.000			-16.788			-3.358
154501.000			-16.788			-3.358
154600.000			-16.788			-3.358
154700.000			-16.788			-3.358
154802.000			-16.787			-3.357
154901.000			-16.787			-3.357
155002.000			-16.788			-3.358
155100.000			-16.787			-3.357
155200.000			-16.787			-3.357
155301.000			-16.786			-3.357
155400.000			-16.786			-3.357
155500.000			-16.785			-3.357
155601.000			-16.786			-3.357
155700.000			-16.786			-3.357
155801.000			-16.785			-3.357
155902.000			-16.785			-3.357
156001.000			-16.784			-3.357
156100.000			-16.785			-3.357
156201.000			-16.784			-3.357
156300.000			-16.783			-3.357
156400.000			-16.783			-3.357
156501.000			-16.783			-3.357
156600.000			-16.782			-3.356
156700.000			-16.782			-3.356
156802.000			-16.782			-3.356
156901.000			-16.782			-3.356
157000.000			-16.783			-3.357
157101.000			-16.783			-3.357
157200.000			-16.782			-3.356
157300.000			-16.782			-3.356
157401.000			-16.781			-3.356
157500.000			-16.780			-3.356
157600.000			-16.781			-3.356
157702.000			-16.781			-3.356
157801.000			-16.781			-3.356
157901.000			-16.781			-3.356
158001.000			-16.780			-3.356
158100.000			-16.781			-3.356
158200.000			-16.778			-3.356
158300.000			-16.779			-3.356
158400.000			-16.779			-3.356
158501.000			-16.778			-3.356
158600.000			-16.778			-3.356
158701.000			-16.778			-3.356
158802.000			-16.778			-3.356
158901.000			-16.778			-3.356
159000.000			-16.778			-3.356
159101.000			-16.778			-3.356
159200.000			-16.777			-3.355
159300.000			-16.777			-3.355
159401.000			-16.777			-3.355
159500.000			-16.776			-3.355
159600.000			-16.776			-3.355
159701.000			-16.776			-3.355
159801.000			-16.775			-3.355
159901.000			-16.776			-3.355
160001.000			-16.775			-3.355
160100.000			-16.775			-3.355
160200.000			-16.774			-3.355
160301.000			-16.775			-3.355
160400.000			-16.774			-3.355
160500.000			-16.773			-3.355
160601.000			-16.773			-3.355
160701.000			-16.773			-3.355
160801.000			-16.773			-3.355
160901.000			-16.773			-3.355
161000.000			-16.773			-3.355
161100.000			-16.772			-3.354
161201.000			-16.772			-3.354
161300.000			-16.772			-3.354
161400.000			-16.772			-3.354
161500.000			-16.771			-3.354
161601.000			-16.771			-3.354
161702.000			-16.771			-3.354
161801.000			-16.772			-3.354
161900.000			-16.770			-3.354
162001.000			-16.771			-3.354
162100.000			-16.771			-3.354
162200.000			-16.771			-3.354
162301.000			-16.770			-3.354
162400.000			-16.769			-3.354
162500.000			-16.769			-3.354
162602.000			-16.769			-3.354
162701.000			-16.768			-3.354
162800.000			-16.768			-3.354
162901.000			-16.769			-3.354
163000.000			-16.769			-3.354
163100.000			-16.768			-3.354
163201.000			-16.768			-3.354
163300.000			-16.768			-3.354
163400.000			-16.769			-3.354
163502.000			-16.768			-3.354
163601.000			-16.768			-3.354
163701.000			-16.768			-3.354
163801.000			-16.768			-3.354
163900.000			-16.765			-3.353
164000.000			-16.766			-3.353
164101.000			-16.766			-3.353
164200.000			-16.766			-3.353
164300.000			-16.766			-3.353
164401.000			-16.767			-3.353
164501.000			-16.765			-3.353
164602.000			-16.764			-3.353
164701.000			-16.765			-3.353
164800.000			-16.764			-3.353
164901.000			-16.763			-3.353
165000.000			-16.764			-3.353
165100.000			-16.764			-3.353
165201.000			-16.764			-3.353
165300.000			-16.764			-3.353
165400.000			-16.763			-3.353
165502.000			-16.761			-3.352
165601.000			-16.761			-3.352
165701.000			-16.761			-3.352
165801.000			-16.762			-3.352
165900.000			-16.762			-3.352
166000.000			-16.762			-3.352
166101.000			-16.761			-3.352
166200.000			-16.761			-3.352
166300.000			-16.761			-3.352
166401.000			-16.761			-3.352
166501.000			-16.761			-3.352
166601.000			-16.760			-3.352
166701.000			-16.760			-3.352
166800.000			-16.760			-3.352
166900.000			-16.759			-3.352
167001.000			-16.759			-3.352
167100.000			-16.758			-3.352
167200.000			-16.758			-3.352
167301.000			-16.759			-3.352
167401.000			-16.759			-3.352
167501.000			-16.759			-3.352
167602.000			-16.758			-3.352
167700.000			-16.758			-3.352
167800.000			-16.758			-3.352
167900.000			-16.758			-3.352
168000.000			-16.758			-3.352
168101.000			-16.757			-3.351
168200.000			-16.756			-3.351
168300.000			-16.757			-3.351
168402.000			-16.756			-3.351
168501.000			-16.755			-3.351
168601.000			-16.756			-3.351
168701.000			-16.755			-3.351
168800.000			-16.754			-3.351
168900.000			-16.755			-3.351
169001.000			-16.756			-3.351
169100.000			-16.755			-3.351
169200.000			-16.755			-3.351
169301.000			-16.754			-3.351
169401.000			-16.754			-3.351
169501.000			-16.753			-3.351
169602.000			-16.754			-3.351
169700.000			-16.754			-3.351
169800.000			-16.753			-3.351
169901.000			-16.753			-3.351
170000.000			-16.753			-3.351
170100.000			-16.753			-3.351
170201.000			-16.752			-3.350
170300.000			-16.753			-3.351
170401.000			-16.753			-3.351
170502.000			-16.752			-3.350
170601.000			-16.752			-3.350
170700.000			-16.752			-3.350
170801.000			-16.751			-3.350
170900.000			-16.752			-3.350
171000.000			-16.752			-3.350
171100.000			-16.751			-3.350
171200.000			-16.750			-3.350
171301.000			-16.751			-3.350
171401.000			-16.750			-3.350
171501.000			-16.750			-3.350
171601.000			-16.750			-3.350
171700.000			-16.749			-3.350
171800.000			-16.749			-3.350
171901.000			-16.749			-3.350
172000.000			-16.748			-3.350
172100.000			-16.748			-3.350
172201.000			-16.748			-3.350
172301.000			-16.747			-3.349
172401.000			-16.748			-3.350
172502.000			-16.747			-3.349
172600.000			-16.748			-3.350
172700.000			-16.747			-3.349
172801.000			-16.748			-3.350
172900.000			-16.748			-3.350
173000.000			-16.748			-3.350
173101.000			-16.747			-3.349
173200.000			-16.746			-3.349
173301.000			-16.746			-3.349
173402.000			-16.746			-3.349
173500.000			-16.745			-3.349
173600.000			-16.745			-3.349
173701.000			-16.744			-3.349
173800.000			-16.744			-3.349
173900.000			-16.744			-3.349
174001.000			-16.744			-3.349
174100.000			-16.745			-3.349
174202.000			-16.745			-3.349
174301.000			-16.744			-3.349
174401.000			-16.744			-3.349
174501.000			-16.743			-3.349
174600.000			-16.744			-3.349
174700.000			-16.744			-3.349
174801.000			-16.743			-3.349
174900.000			-16.744			-3.349
175000.000			-16.744			-3.349
175101.000			-16.741			-3.348
175201.000			-16.741			-3.348
175301.000			-16.742			-3.348
175401.000			-16.743			-3.349
175500.000			-16.742			-3.348
175600.000			-16.740			-3.348
175701.000			-16.740			-3.348
175800.000			-16.740			-3.348
175900.000			-16.740			-3.348
176001.000			-16.741			-3.348
176101.000			-16.741			-3.348
176201.000			-16.741			-3.348
176302.000			-16.740			-3.348
176400.000			-16.740			-3.348
176500.000			-16.739			-3.348
176601.000			-16.739			-3.348
176700.000			-16.740			-3.348
176800.000			-16.739			-3.348
176901.000			-16.739			-3.348
177000.000			-16.740			-3.348
177100.000			-16.739			-3.348
177202.000			-16.738			-3.348
177301.000			-16.738			-3.348
177400.000			-16.739			-3.348
177500.000			-16.738			-3.348
177600.000			-16.737			-3.347
177701.000			-16.736			-3.347
177800.000			-16.736			-3.347
177900.000			-16.736			-3.347
178001.000			-16.736			-3.347
178101.000			-16.737			-3.347
178201.000			-16.738			-3.348
178302.000			-16.737			-3.347
178400.000			-16.734			-3.347
178500.000			-16.735			-3.347
178601.000			-16.735			-3.347
178700.000			-16.735			-3.347
178800.000			-16.734			-3.347
178901.000			-16.733			-3.347
179000.000			-16.734			-3.347
179101.000			-16.734			-3.347
179202.000			-16.733			-3.347
179301.000			-16.734			-3.347
179400.000			-16.734			-3.347
179501.000			-16.733			-3.347
179600.000			-16.733			-3.347
179700.000			-16.733			-3.347
179801.000			-16.733			-3.347
179900.000			-16.733			-3.347
180000.000			-16.733			-3.347
180102.000			-16.733			-3.347
180201.000			-16.732			-3.346
180300.000			-16.732			-3.346
180401.000			-16.732			-3.346
180500.000			-16.731			-3.346
180600.000			-16.731			-3.346
180700.000			-16.731			-3.346
180800.000			-16.731			-3.346
180901.000			-16.731			-3.346
181001.000			-16.730			-3.346
181101.000			-16.730			-3.346
181201.000			-16.730			-3.346
181300.000			-16.731			-3.346
181400.000			-16.729			-3.346
181501.000			-16.728			-3.346
181600.000			-16.729			-3.346
181700.000			-16.730			-3.346
181801.000			-16.730			-3.346
181901.000			-16.730			-3.346
182001.000			-16.729			-3.346
182102.000			-16.729			-3.346
182200.000			-16.728			-3.346
182300.000			-16.728			-3.346
182401.000			-16.728			-3.346
182500.000			-16.728			-3.346
182600.000			-16.727			-3.345
182701.000			-16.726			-3.345
182800.000			-16.727			-3.345
182901.000			-16.726			-3.345
183002.000			-16.726			-3.345
183100.000			-16.726			-3.345
183200.000			-16.726			-3.345
183301.000			-16.726			-3.345
183400.000			-16.725			-3.345
183500.000			-16.724			-3.345
183601.000			-16.725			-3.345
183700.000			-16.725			-3.345
183802.000			-16.725			-3.345
183901.000			-16.724			-3.345
184001.000			-16.724			-3.345
184101.000			-16.724			-3.345
184200.000			-16.723			-3.345
184300.000			-16.723			-3.345
184401.000			-16.723			-3.345
184500.000			-16.722			-3.344
184600.000			-16.722			-3.344
184701.000			-16.722			-3.344
184801.000			-16.722			-3.344
184901.000			-16.722			-3.344
185001.000			-16.722			-3.344
185100.000			-16.722			-3.344
185200.000			-16.722			-3.344
185301.000			-16.722			-3.344
185400.000			-16.721			-3.344
185500.000			-16.721			-3.344
185601.000			-16.720			-3.344
185701.000			-16.721			-3.344
185801.000			-16.720			-3.344
185901.000			-16.720			-3.344
186000.000			-16.720			-3.344
186100.000			-16.720			-3.344
186201.000			-16.719			-3.344
186300.000			-16.719			-3.344
186400.000			-16.719			-3.344
186501.000			-16.720			-3.344
186601.000			-16.719			-3.344
186701.000			-16.719			-3.344
186802.000			-16.719			-3.344
186900.000			-16.718			-3.344
187000.000			-16.718			-3.344
187100.000			-16.717			-3.343
187200.000			-16.718			-3.344
187301.000			-16.717			-3.343
187400.000			-16.717			-3.343
187500.000			-16.717			-3.343
187602.000			-16.717			-3.343
187701.000			-16.718			-3.344
187801.000			-16.717			-3.343
187901.000			-16.716			-3.343
188000.000			-16.717			-3.343
188100.000			-16.716			-3.343
188201.000			-16.716			-3.343
188300.000			-16.715			-3.343
188400.000			-16.716			-3.343
188501.000			-16.715			-3.343
188601.000			-16.715			-3.343
188701.000			-16.715			-3.343
188802.000			-16.715			-3.343
188900.000			-16.715			-3.343
189000.000			-16.714			-3.343
189101.000			-16.715			-3.343
189200.000			-16.714			-3.343
189300.000			-16.714			-3.343
189401.000			-16.714			-3.343
189500.000			-16.714			-3.343
189601.000			-16.712			-3.342
189702.000			-16.712			-3.342
189801.000			-16.713			-3.343
189900.000			-16.713			-3.343
190001.000			-16.713			-3.343
190100.000			-16.714			-3.343
190200.000			-16.713			-3.343
190300.000			-16.713			-3.343
190400.000			-16.712			-3.342
190501.000			-16.712			-3.342
190601.000			-16.711			-3.342
190701.000			-16.711			-3.342
190801.000			-16.711			-3.342
190900.000			-16.711			-3.342
191000.000			-16.711			-3.342
191101.000			-16.710			-3.342
191200.000			-16.710			-3.342
191300.000			-16.710			-3.342
191401.000			-16.710			-3.342
191501.000			-16.710			-3.342
191601.000			-16.708			-3.342
191702.000			-16.708			-3.342
191800.000			-16.708			-3.342
191900.000			-16.708			-3.342
192001.000			-16.708			-3.342
192100.000			-16.708			-3.342
192200.000			-16.708			-3.342
192301.000			-16.708			-3.342
192400.000			-16.707			-3.341
192501.000			-16.706			-3.341
192602.000			-16.707			-3.341
192700.000			-16.707			-3.341
192800.000			-16.706			-3.341
192901.000			-16.706			-3.341
193000.000			-16.706			-3.341
193100.000			-16.707			-3.341
193201.000			-16.707			-3.341
193300.000			-16.707			-3.341
193402.000			-16.707			-3.341
193501.000			-16.706			-3.341
193601.000			-16.705			-3.341
193701.000			-16.705			-3.341
193800.000			-16.706			-3.341
193900.000			-16.705			-3.341
194001.000			-16.705			-3.341
194100.000			-16.705			-3.341
194200.000			-16.705			-3.341
194301.000			-16.704			-3.341
194401.000			-16.704			-3.341
194501.000			-16.703			-3.341
194601.000			-16.704			-3.341
194700.000			-16.705			-3.341
194800.000			-16.703			-3.341
194901.000			-16.703			-3.341
195000.000			-16.703			-3.341
195100.000			-16.702			-3.340
195201.000			-16.703			-3.341
195301.000			-16.702			-3.340
195401.000			-16.702			-3.340
195501.000			-16.702			-3.340
195600.000			-16.702			-3.340
195700.000			-16.701			-3.340
195801.000			-16.702			-3.340
195900.000			-16.702			-3.340
196000.000			-16.701			-3.340
196101.000			-16.701			-3.340
196201.000			-16.701			-3.340
196301.000			-16.701			-3.340
196402.000			-16.700			-3.340
196500.000			-16.699			-3.340
196600.000			-16.700			-3.340
196700.000			-16.701			-3.340
196800.000			-16.700			-3.340
196901.000			-16.699			-3.340
197000.000			-16.699			-3.340
197100.000			-16.699			-3.340
197201.000			-16.699			-3.340
197301.000			-16.699			-3.340
197401.000			-16.698			-3.340
197501.000			-16.698			-3.340
197600.000			-16.697			-3.339
197700.000			-16.697			-3.339
197801.000			-16.697			-3.339
197900.000			-16.697			-3.339
198000.000			-16.697			-3.339
198101.000			-16.697			-3.339
198200.000			-16.697			-3.339
198301.000			-16.698			-3.340
198402.000			-16.697			-3.339
198501.000			-16.697			-3.339
198600.000			-16.696			-3.339
198701.000			-16.696			-3.339
198800.000			-16.695			-3.339
198900.000			-16.695			-3.339
199001.000			-16.695			-3.339
199100.000			-16.695			-3.339
199200.000			-16.695			-3.339
199302.000			-16.695			-3.339
199401.000			-16.694			-3.339
199501.000			-16.695			-3.339
199601.000			-16.694			-3.339
199700.000			-16.693			-3.339
199800.000			-16.693			-3.339
199900.000			-16.694			-3.339
200000.000			-16.694			-3.339
200101.000			-16.694			-3.339
200200.000			-16.693			-3.339
200301.000			-16.694			-3.339
200402.000			-16.694			-3.339
200501.000			-16.694			-3.339
200600.000			-16.693			-3.339
200701.000			-16.692			-3.338
200800.000			-16.692			-3.338
200900.000			-16.692			-3.338
201001.000			-16.693			-3.339
201100.000			-16.692			-3.338
201200.000			-16.691			-3.338
201302.000			-16.691			-3.338
201401.000			-16.691			-3.338
201500.000			-16.690			-3.338
201601.000			-16.690			-3.338
201700.000			-16.690			-3.338
201800.000			-16.691			-3.338
201901.000			-16.691			-3.338
202000.000			-16.691			-3.338
202100.000			-16.691			-3.338
202202.000			-16.690			-3.338
202301.000			-16.690			-3.338
202400.000			-16.690			-3.338
202501.000			-16.688			-3.338
202600.000			-16.689			-3.338
202700.000			-16.689			-3.338
202801.000			-16.689			-3.338
202900.000			-16.689			-3.338
203000.000			-16.688			-3.338
203102.000			-16.687			-3.337
203201.000			-16.688			-3.338
203302.000			-16.688			-3.338
203400.000			-16.687			-3.337
203500.000			-16.688			-3.338
203601.000			-16.688			-3.338
203700.000			-16.687			-3.337
203800.000			-16.686			-3.337
203901.000			-16.687			-3.337
204000.000			-16.686			-3.337
204101.000			-16.685			-3.337
204202.000			-16.685			-3.337
204300.000			-16.685			-3.337
204400.000			-16.685			-3.337
204501.000			-16.685			-3.337
204600.000			-16.685			-3.337
204700.000			-16.685			-3.337
204801.000			-16.685			-3.337
204900.000			-16.685			-3.337
205001.000			-16.684			-3.337
205102.000			-16.684			-3.337
205201.000			-16.684			-3.337
205300.000			-16.684			-3.337
205401.000			-16.685			-3.337
205500.000			-16.684			-3.337
205600.000			-16.683			-3.337
205701.000			-16.684			-3.337
205800.000			-16.683			-3.337
205900.000			-16.683			-3.337
206002.000			-16.683			-3.337
206101.000			-16.682			-3.336
206200.000			-16.683			-3.337
206300.000			-16.684			-3.337
206400.000			-16.682			-3.336
206501.000			-16.681			-3.336
206600.000			-16.681			-3.336
206700.000			-16.681			-3.336
206801.000			-16.681			-3.336
206901.000			-16.681			-3.336
207001.000			-16.681			-3.336
207101.000			-16.681			-3.336
207200.000			-16.681			-3.336
207300.000			-16.681			-3.336
207401.000			-16.681			-3.336
207500.000			-16.680			-3.336
207600.000			-16.680			-3.336
207701.000			-16.680			-3.336
207801.000			-16.680			-3.336
207901.000			-16.679			-3.336
208002.000			-16.679			-3.336
208100.000			-16.679			-3.336
208200.000			-16.679			-3.336
208301.000			-16.679			-3.336
208400.000			-16.678			-3.336
208500.000			-16.679			-3.336
208601.000			-16.678			-3.336
208700.000			-16.678			-3.336
208801.000			-16.677			-3.335
208902.000			-16.677			-3.335
209001.000			-16.677			-3.335
209100.000			-16.677			-3.335
209201.000			-16.676			-3.335
209300.000			-16.676			-3.335
209400.000			-16.677			-3.335
209500.000			-16.677			-3.335
209600.000			-16.676			-3.335
209701.000			-16.676			-3.335
209801.000			-16.676			-3.335
209901.000			-16.675			-3.335
210002.000			-16.675			-3.335
210100.000			-16.675			-3.335
210200.000			-16.675			-3.335
210301.000			-16.674			-3.335
210400.000			-16.675			-3.335
210500.000			-16.674			-3.335
210601.000			-16.674			-3.335
210701.000			-16.674			-3.335
210801.000			-16.674			-3.335
210902.000			-16.674			-3.335
211000.000			-16.674			-3.335
211100.000			-16.674			-3.335
211201.000			-16.674			-3.335
211300.000			-16.673			-3.335
211400.000			-16.673			-3.335
211501.000			-16.673			-3.335
211601.000			-16.673			-3.335
211701.000			-16.673			-3.335
211802.000			-16.673			-3.335
211900.000			-16.672			-3.334
212000.000			-16.672			-3.334
212101.000			-16.671			-3.334
212200.000			-16.671			-3.334
212300.000			-16.671			-3.334
212401.000			-16.671			-3.334
212501.000			-16.672			-3.334
212602.000			-16.672			-3.334
212701.000			-16.671			-3.334
212800.000			-16.671			-3.334
212901.000			-16.670			-3.334
213000.000			-16.670			-3.334
213100.000			-16.671			-3.334
213201.000			-16.670			-3.334
213300.000			-16.669			-3.334
213400.000			-16.669			-3.334
213502.000			-16.670			-3.334
213601.000			-16.670			-3.334
213700.000			-16.669			-3.334
213801.000			-16.668			-3.334
213900.000			-16.668			-3.334
214000.000			-16.669			-3.334
214101.000			-16.669			-3.334
214200.000			-16.669			-3.334
214300.000			-16.668			-3.334
214402.000			-16.668			-3.334
214501.000			-16.667			-3.333
214601.000			-16.665			-3.333
214701.000			-16.666			-3.333
214800.000			-16.668			-3.334
214900.000			-16.667			-3.333
215001.000			-16.666			-3.333
215100.000			-16.667			-3.333
215200.000			-16.667			-3.333
215301.000			-16.666			-3.333
215401.000			-16.666			-3.333
215501.000			-16.666			-3.333
215601.000			-16.666			-3.333
215700.000			-16.665			-3.333
215800.000			-16.666			-3.333
215900.000			-16.666			-3.333
216000.000			-16.665			-3.333
216101.000			-16.665			-3.333
216200.000			-16.665			-3.333
216301.000			-16.664			-3.333
216402.000			-16.664			-3.333
216501.000			-16.664			-3.333
216600.000			-16.664			-3.333
216701.000			-16.664			-3.333
216800.000			-16.664			-3.333
216900.000			-16.664			-3.333
217001.000			-16.663			-3.333
217100.000			-16.663			-3.333
217200.000			-16.662			-3.332
217302.000			-16.661			-3.332
217401.000			-16.662			-3.332
217501.000			-16.663			-3.333
217601.000			-16.662			-3.332
217700.000			-16.661			-3.332
217800.000			-16.661			-3.332
217901.000			-16.661			-3.332
218000.000			-16.661			-3.332
218100.000			-16.661			-3.332
218202.000			-16.661			-3.332
218301.000			-16.660			-3.332
218401.000			-16.660			-3.332
218501.000			-16.660			-3.332
218600.000			-16.659			-3.332
218700.000			-16.659			-3.332
218801.000			-16.660			-3.332
218900.000			-16.659			-3.332
219000.000			-16.658			-3.332
219100.000			-16.659			-3.332
219200.000			-16.659			-3.332
219302.000			-16.659			-3.332
219401.000			-16.659			-3.332
219500.000			-16.658			-3.332
219601.000			-16.658			-3.332
219700.000			-16.658			-3.332
219800.000			-16.657			-3.331
219901.000			-16.657			-3.331
220000.000			-16.657			-3.331
220100.000			-16.658			-3.332
220202.000			-16.657			-3.331
220301.000			-16.657			-3.331
220401.000			-16.656			-3.331
220501.000			-16.656			-3.331
220600.000			-16.655			-3.331
220700.000			-16.656			-3.331
220801.000			-16.655			-3.331
220900.000			-16.655			-3.331
221000.000			-16.655			-3.331
221101.000			-16.654			-3.331
221201.000			-16.654			-3.331
221301.000			-16.653			-3.331
221401.000			-16.654			-3.331
221500.000			-16.654			-3.331
221600.000			-16.653			-3.331
221701.000			-16.654			-3.331
221800.000			-16.654			-3.331
221900.000			-16.653			-3.331
222001.000			-16.652			-3.330
222101.000			-16.652			-3.330
222202.000			-16.652			-3.330
222300.000			-16.653			-3.331
222400.000			-16.653			-3.331
222501.000			-16.653			-3.331
222600.000			-16.651			-3.330
222700.000			-16.651			-3.330
222801.000			-16.651			-3.330
222900.000			-16.651			-3.330
223001.000			-16.651			-3.330
223102.000			-16.651			-3.330
223200.000			-16.651			-3.330
223300.000			-16.651			-3.330
223401.000			-16.650			-3.330
223500.000			-16.650			-3.330
223600.000			-16.650			-3.330
223701.000			-16.649			-3.330
223800.000			-16.650			-3.330
223901.000			-16.651			-3.330
224002.000			-16.649			-3.330
224101.000			-16.650			-3.330
224200.000			-16.650			-3.330
224301.000			-16.650			-3.330
224400.000			-16.650			-3.330
224500.000			-16.650			-3.330
224601.000			-16.649			-3.330
224700.000			-16.649			-3.330
224800.000			-16.649			-3.330
224902.000			-16.649			-3.330
225001.000			-16.649			-3.330
225100.000			-16.648			-3.330
225201.000			-16.648			-3.330
225300.000			-16.648			-3.330
225400.000			-16.648			-3.330
225500.000			-16.648			-3.330
225600.000			-16.648			-3.330
225701.000			-16.647			-3.329
225801.000			-16.647			-3.329
225901.000			-16.646			-3.329
226001.000			-16.647			-3.329
226100.000			-16.647			-3.329
226200.000			-16.647			-3.329
226301.000			-16.647			-3.329
226400.000			-16.645			-3.329
226500.000			-16.646			-3.329
226601.000			-16.646			-3.329
226701.000			-16.645			-3.329
226801.000			-16.645			-3.329
226902.000			-16.645			-3.329
227000.000			-16.645			-3.329
227100.000			-16.645			-3.329
227201.000			-16.645			-3.329
227300.000			-16.644			-3.329
227400.000			-16.645			-3.329
227501.000			-16.645			-3.329
227600.000			-16.644			-3.329
227701.000			-16.643			-3.329
227802.000			-16.643			-3.329
227900.000			-16.644			-3.329
228000.000			-16.644			-3.329
228101.000			-16.643			-3.329
228200.000			-16.643			-3.329
228300.000			-16.643			-3.329
228401.000			-16.643			-3.329
228500.000			-16.643			-3.329
228602.000			-16.641			-3.328
228701.000			-16.642			-3.328
228801.000			-16.643			-3.329
228901.000			-16.642			-3.328
229000.000			-16.642			-3.328
229100.000			-16.642			-3.328
229201.000			-16.641			-3.328
229300.000			-16.642			-3.328
229400.000			-16.641			-3.328
229501.000			-16.640			-3.328
229601.000			-16.642			-3.328
229701.000			-16.642			-3.328
229801.000			-16.641			-3.328
229900.000			-16.641			-3.328
230000.000			-16.640			-3.328
230101.000			-16.641			-3.328
230200.000			-16.641			-3.328
230300.000			-16.640			-3.328
230401.000			-16.640			-3.328
230501.000			-16.640			-3.328
230601.000			-16.640			-3.328
230701.000			-16.640			-3.328
230800.000			-16.640			-3.328
230900.000			-16.639			-3.328
231001.000			-16.638			-3.328
231100.000			-16.638			-3.328
231200.000			-16.639			-3.328
231301.000			-16.639			-3.328
231401.000			-16.640			-3.328
231501.000			-16.638			-3.328
231602.000			-16.639			-3.328
231700.000			-16.638			-3.328
231800.000			-16.638			-3.328
231900.000			-16.638			-3.328
232000.000			-16.637			-3.327
232101.000			-16.637			-3.327
232200.000			-16.638			-3.328
232300.000			-16.637			-3.327
232402.000			-16.637			-3.327
232501.000			-16.637			-3.327
232600.000			-16.637			-3.327
232701.000			-16.636			-3.327
232800.000			-16.637			-3.327
232900.000			-16.638			-3.328
233001.000			-16.636			-3.327
233100.000			-16.637			-3.327
233200.000			-16.636			-3.327
233302.000			-16.636			-3.327
233401.000			-16.636			-3.327
233501.000			-16.635			-3.327
233601.000			-16.636			-3.327
233700.000			-16.635			-3.327
233800.000			-16.635			-3.327
233901.000			-16.634			-3.327
234000.000			-16.635			-3.327
234100.000			-16.636			-3.327
234202.000			-16.635			-3.327
234301.000			-16.635			-3.327
234401.000			-16.635			-3.327
234501.000			-16.635			-3.327
234600.000			-16.634			-3.327
234700.000			-16.634			-3.327
234801.000			-16.635			-3.327
234900.000			-16.635			-3.327
235000.000			-16.634			-3.327
235100.000			-16.635			-3.327
235201.000			-16.633			-3.327
235302.000			-16.634			-3.327
235400.000			-16.634			-3.327
235500.000			-16.634			-3.327
235601.000			-16.635			-3.327
235700.000			-16.634			-3.327
235800.000			-16.633			-3.327
235901.000			-16.633			-3.327
236000.000			-16.633			-3.327
236101.000			-16.632			-3.326
236202.000			-16.632			-3.326
236301.000			-16.633			-3.327
236400.000			-16.634			-3.327
236501.000			-16.632			-3.326
236600.000			-16.633			-3.327
236700.000			-16.631			-3.326
236801.000			-16.632			-3.326
236900.000			-16.632			-3.326
237000.000			-16.631			-3.326
237102.000			-16.631			-3.326
237201.000			-16.630			-3.326
237300.000			-16.631			-3.326
237401.000			-16.631			-3.326
237500.000			-16.631			-3.326
237600.000			-16.631			-3.326
237701.000			-16.631			-3.326
237800.000			-16.631			-3.326
237900.000			-16.629			-3.326
238002.000			-16.629			-3.326
238101.000			-16.630			-3.326
238200.000			-16.630			-3.326
238300.000			-16.630			-3.326
238400.000			-16.629			-3.326
238501.000			-16.629			-3.326
238600.000			-16.629			-3.326
238700.000			-16.630			-3.326
238801.000			-16.629			-3.326
238901.000			-16.629			-3.326
239001.000			-16.629			-3.326
239102.000			-16.629			-3.326
239200.000			-16.630			-3.326
239300.000			-16.629			-3.326
239401.000			-16.628			-3.326
239500.000			-16.628			-3.326
239600.000			-16.629			-3.326
239701.000			-16.626			-3.325
239800.000			-16.627			-3.325
239901.000			-16.627			-3.325
240002.000			-16.627			-3.325
240101.000			-16.627			-3.325
240200.000			-16.627			-3.325
240301.000			-16.627			-3.325
240400.000			-16.627			-3.325
240500.000			-16.627			-3.325
240601.000			-16.626			-3.325
240700.000			-16.625			-3.325
240801.000			-16.625			-3.325
240902.000			-16.625			-3.325
241001.000			-16.625			-3.325
241100.000			-16.625			-3.325
241201.000			-16.625			-3.325
241300.000			-16.625			-3.325
241400.000			-16.624			-3.325
241500.000			-16.626			-3.325
241600.000			-16.625			-3.325
241701.000			-16.623			-3.325
241801.000			-16.624			-3.325
241901.000			-16.624			-3.325
242001.000			-16.624			-3.325
242100.000			-16.625			-3.325
242200.000			-16.624			-3.325
242301.000			-16.623			-3.325
242400.000			-16.623			-3.325
242500.000			-16.622			-3.324
242601.000			-16.622			-3.324
242701.000			-16.623			-3.325
242801.000			-16.622			-3.324
242901.000			-16.622			-3.324
243000.000			-16.622			-3.324
243100.000			-16.621			-3.324
243201.000			-16.620			-3.324
243300.000			-16.619			-3.324
243400.000			-16.619			-3.324
243501.000			-16.619			-3.324
243601.000			-16.619			-3.324
243701.000			-16.620			-3.324
243802.000			-16.619			-3.324
243900.000			-16.619			-3.324
244000.000			-16.619			-3.324
244101.000			-16.619			-3.324
244200.000			-16.618			-3.324
244300.000			-16.618			-3.324
244401.000			-16.618			-3.324
244500.000			-16.618			-3.324
244602.000			-16.617			-3.323
244701.000			-16.617			-3.323
244800.000			-16.616			-3.323
244901.000			-16.617			-3.323
245000.000			-16.617			-3.323
245100.000			-16.617			-3.323
245201.000			-16.617			-3.323
245300.000			-16.617			-3.323
245400.000			-16.616			-3.323
245502.000			-16.615			-3.323
245601.000			-16.615			-3.323
245701.000			-16.616			-3.323
245801.000			-16.614			-3.323
245900.000			-16.614			-3.323
246000.000			-16.614			-3.323
246101.000			-16.614			-3.323
246200.000			-16.616			-3.323
246300.000			-16.615			-3.323
246402.000			-16.614			-3.323
246501.000			-16.615			-3.323
246601.000			-16.614			-3.323
246701.000			-16.614			-3.323
246800.000			-16.614			-3.323
246900.000			-16.613			-3.323
247001.000			-16.613			-3.323
247100.000			-16.612			-3.322
247200.000			-16.612			-3.322
247301.000			-16.613			-3.323
247401.000			-16.613			-3.323
247501.000			-16.612			-3.322
247601.000			-16.613			-3.323
247700.000			-16.612			-3.322
247800.000			-16.611			-3.322
247900.000			-16.611			-3.322
248000.000			-16.610			-3.322
248101.000			-16.611			-3.322
248200.000			-16.611			-3.322
248301.000			-16.611			-3.322
248402.000			-16.610			-3.322
248501.000			-16.610			-3.322
248600.000			-16.610			-3.322
248701.000			-16.610			-3.322
248800.000			-16.610			-3.322
248900.000			-16.610			-3.322
249001.000			-16.609			-3.322
249100.000			-16.608			-3.322
249200.000			-16.608			-3.322
249302.000			-16.610			-3.322
249401.000			-16.610			-3.322
249500.000			-16.610			-3.322
249601.000			-16.609			-3.322
249700.000			-16.610			-3.322
249800.000			-16.610			-3.322
249901.000			-16.609			-3.322
250000.000			-16.610			-3.322
250100.000			-16.609			-3.322
250202.000			-16.608			-3.322
250301.000			-16.609			-3.322
250401.000			-16.610			-3.322
250501.000			-16.609			-3.322
250600.000			-16.609			-3.322
250700.000			-16.609			-3.322
250801.000			-16.608			-3.322
250900.000			-16.609			-3.322
251000.000			-16.608			-3.322
251100.000			-16.609			-3.322
251201.000			-16.608			-3.322
251302.000			-16.608			-3.322
251400.000			-16.607			-3.321
251500.000			-16.607			-3.321
251601.000			-16.608			-3.322
251700.000			-16.609			-3.322
251800.000			-16.610			-3.322
251901.000			-16.608			-3.322
252000.000			-16.608			-3.322
252101.000			-16.609			-3.322
252202.000			-16.608			-3.322
252301.000			-16.608			-3.322
252400.000			-16.607			-3.321
252501.000			-16.608			-3.322
252600.000			-16.606			-3.321
252700.000			-16.606			-3.321
252801.000			-16.606			-3.321
252900.000			-16.606			-3.321
253000.000			-16.607			-3.321
253102.000			-16.606			-3.321
253201.000			-16.605			-3.321
253300.000			-16.607			-3.321
253401.000			-16.606			-3.321
253500.000			-16.606			-3.321
253600.000			-16.606			-3.321
253701.000			-16.605			-3.321
253800.000			-16.605			-3.321
253900.000			-16.606			-3.321
254002.000			-16.606			-3.321
254101.000			-16.607			-3.321
254200.000			-16.606			-3.321
254300.000			-16.605			-3.321
254400.000			-16.605			-3.321
254501.000			-16.604			-3.321
254600.000			-16.605			-3.321
254700.000			-16.605			-3.321
254801.000			-16.604			-3.321
254901.000			-16.605			-3.321
255001.000			-16.605			-3.321
255102.000			-16.606			-3.321
255200.000			-16.605			-3.321
255300.000			-16.604			-3.321
255401.000			-16.604			-3.321
255500.000			-16.604			-3.321
255600.000			-16.603			-3.321
255701.000			-16.603			-3.321
255800.000			-16.603			-3.321
255901.000			-16.603			-3.321
256002.000			-16.602			-3.320
256100.000			-16.602			-3.320
256200.000			-16.602			-3.320
256301.000			-16.603			-3.321
256400.000			-16.603			-3.321
256500.000			-16.603			-3.321
256601.000			-16.602			-3.320
256700.000			-16.602			-3.320
256801.000			-16.602			-3.320
256902.000			-16.602			-3.320
257001.000			-16.601			-3.320
257100.000			-16.601			-3.320
257201.000			-16.600			-3.320
257300.000			-16.601			-3.320
257400.000			-16.601			-3.320
257500.000			-16.600			-3.320
257600.000			-16.600			-3.320
257702.000			-16.601			-3.320
257801.000			-16.600			-3.320
257901.000			-16.600			-3.320
258001.000			-16.600			-3.320
258100.000			-16.600			-3.320
258200.000			-16.599			-3.320
258301.000			-16.599			-3.320
258400.000			-16.600			-3.320
258500.000			-16.599			-3.320
258601.000			-16.600			-3.320
258701.000			-16.599			-3.320
258801.000			-16.599			-3.320
258902.000			-16.599			-3.320
259000.000			-16.599			-3.320
259100.000			-16.598			-3.320
259201.000			-16.598			-3.320
259300.000			-16.599			-3.320
259400.000			-16.600			-3.320
259501.000			-16.598			-3.320
259600.000			-16.597			-3.319
259701.000			-16.598			-3.320
259802.000			-16.596			-3.319
259901.000			-16.598			-3.320
260000.000			-16.598			-3.320
260101.000			-16.597			-3.319
260200.000			-16.596			-3.319
260300.000			-16.596			-3.319
260401.000			-16.597			-3.319
260500.000			-16.597			-3.319
260600.000			-16.596			-3.319
260702.000			-16.596			-3.319
260801.000			-16.598			-3.320
260901.000			-16.597			-3.319
261000.000			-16.596			-3.319
261100.000			-16.596			-3.319
261201.000			-16.596			-3.319
261300.000			-16.595			-3.319
261400.000			-16.595			-3.319
261501.000			-16.595			-3.319
261601.000			-16.595			-3.319
261701.000			-16.594			-3.319
261802.000			-16.594			-3.319
261900.000			-16.595			-3.319
262000.000			-16.595			-3.319
262101.000			-16.594			-3.319
262200.000			-16.593			-3.319
262300.000			-16.593			-3.319
262401.000			-16.593			-3.319
262500.000			-16.595			-3.319
262601.000			-16.595			-3.319
262702.000			-16.594			-3.319
262801.000			-16.592			-3.318
262900.000			-16.592			-3.318
263001.000			-16.592			-3.318
263100.000			-16.593			-3.319
263200.000			-16.593			-3.319
263301.000			-16.593			-3.319
263400.000			-16.593			-3.319
263500.000			-16.592			-3.318
263602.000			-16.593			-3.319
263701.000			-16.592			-3.318
263800.000			-16.592			-3.318
263900.000			-16.591			-3.318
264000.000			-16.590			-3.318
264101.000			-16.592			-3.318
264200.000			-16.590			-3.318
264300.000			-16.590			-3.318
264401.000			-16.591			-3.318
264501.000			-16.590			-3.318
264601.000			-16.591			-3.318
264702.000			-16.591			-3.318
264800.000			-16.591			-3.318
264900.000			-16.591			-3.318
265001.000			-16.590			-3.318
265100.000			-16.590			-3.318
265200.000			-16.589			-3.318
265301.000			-16.589			-3.318
265400.000			-16.589			-3.318
265501.000			-16.589			-3.318
265602.000			-16.589			-3.318
265700.000			-16.589			-3.318
265800.000			-16.589			-3.318
265901.000			-16.589			-3.318
266000.000			-16.588			-3.318
266100.000			-16.588			-3.318
266201.000			-16.589			-3.318
266300.000			-16.589			-3.318
266400.000			-16.589			-3.318
266502.000			-16.588			-3.318
266601.000			-16.588			-3.318
266700.000			-16.588			-3.318
266801.000			-16.587			-3.317
266900.000			-16.587			-3.317
267000.000			-16.587			-3.317
267100.000			-16.587			-3.317
267200.000			-16.587			-3.317
267301.000			-16.588			-3.318
267401.000			-16.587			-3.317
267501.000			-16.586			-3.317
267602.000			-16.586			-3.317
267700.000			-16.586			-3.317
267800.000			-16.587			-3.317
267901.000			-16.586			-3.317
268000.000			-16.586			-3.317
268100.000			-16.586			-3.317
268201.000			-16.585			-3.317
268300.000			-16.585			-3.317
268400.000			-16.585			-3.317
268502.000			-16.584			-3.317
268601.000			-16.585			-3.317
268700.000			-16.585			-3.317
268801.000			-16.585			-3.317
268900.000			-16.585			-3.317
269000.000			-16.585			-3.317
269101.000			-16.584			-3.317
269200.000			-16.583			-3.317
269300.000			-16.583			-3.317
269402.000			-16.583			-3.317
269501.000			-16.584			-3.317
269601.000			-16.583			-3.317
269701.000			-16.584			-3.317
269800.000			-16.584			-3.317
269900.000			-16.583			-3.317
270001.000			-16.582			-3.316
270100.000			-16.582			-3.316
270200.000			-16.582			-3.316
270300.000			-16.582			-3.316
270401.000			-16.583			-3.317
270502.000			-16.583			-3.317
270601.000			-16.583			-3.317
270700.000			-16.583			-3.317
270801.000			-16.581			-3.316
270900.000			-16.580			-3.316
271000.000			-16.581			-3.316
271101.000			-16.581			-3.316
271200.000			-16.580			-3.316
271301.000			-16.581			-3.316
271402.000			-16.581			-3.316
271501.000			-16.581			-3.316
271600.000			-16.581			-3.316
271701.000			-16.581			-3.316
271800.000			-16.581			-3.316
271900.000			-16.581			-3.316
272001.000			-16.581			-3.316
272100.000			-16.581			-3.316
272200.000			-16.579			-3.316
272302.000			-16.580			-3.316
272401.000			-16.580			-3.316
272500.000			-16.579			-3.316
272601.000			-16.579			-3.316
272700.000			-16.579			-3.316
272800.000			-16.579			-3.316
272901.000			-16.578			-3.316
273000.000			-16.578			-3.316
273100.000			-16.578			-3.316
273202.000			-16.578			-3.316
273301.000			-16.578			-3.316
273402.000			-16.578			-3.316
273500.000			-16.578			-3.316
273600.000			-16.578			-3.316
273701.000			-16.577			-3.315
273800.000			-16.577			-3.315
273900.000			-16.577			-3.315
274001.000			-16.578			-3.316
274100.000			-16.577			-3.315
274201.000			-16.577			-3.315
274302.000			-16.577			-3.315
274401.000			-16.577			-3.315
274500.000			-16.576			-3.315
274601.000			-16.577			-3.315
274700.000			-16.577			-3.315
274800.000			-16.576			-3.315
274901.000			-16.576			-3.315
275000.000			-16.576			-3.315
275100.000			-16.575			-3.315
275202.000			-16.575			-3.315
275301.000			-16.575			-3.315
275400.000			-16.576			-3.315
275501.000			-16.576			-3.315
275600.000			-16.576			-3.315
275700.000			-16.576			-3.315
275801.000			-16.576			-3.315
275900.000			-16.575			-3.315
276000.000			-16.575			-3.315
276102.000			-16.576			-3.315
276201.000			-16.575			-3.315
276301.000			-16.574			-3.315
276401.000			-16.574			-3.315
276500.000			-16.575			-3.315
276600.000			-16.573			-3.315
276700.000			-16.574			-3.315
276800.000			-16.575			-3.315
276901.000			-16.574			-3.315
277000.000			-16.574			-3.315
277101.000			-16.573			-3.315
277202.000			-16.574			-3.315
277301.000			-16.573			-3.315
277400.000			-16.574			-3.315
277501.000			-16.573			-3.315
277600.000			-16.573			-3.315
277700.000			-16.573			-3.315
277801.000			-16.572			-3.314
277900.000			-16.573			-3.315
278000.000			-16.573			-3.315
278102.000			-16.572			-3.314
278201.000			-16.572			-3.314
278301.000			-16.572			-3.314
278401.000			-16.572			-3.314
278500.000			-16.572			-3.314
278600.000			-16.572			-3.314
278701.000			-16.571			-3.314
278800.000			-16.570			-3.314
278900.000			-16.571			-3.314
279001.000			-16.570			-3.314
279101.000			-16.570			-3.314
279201.000			-16.571			-3.314
279301.000			-16.572			-3.314
279400.000			-16.571			-3.314
279500.000			-16.570			-3.314
279601.000			-16.569			-3.314
279700.000			-16.569			-3.314
279800.000			-16.569			-3.314
279900.000			-16.569			-3.314
280000.000			-16.570			-3.314
280102.000			-16.571			-3.314
280201.000			-16.569			-3.314
280300.000			-16.569			-3.314
280401.000			-16.569			-3.314
280500.000			-16.570			-3.314
280600.000			-16.570			-3.314
280701.000			-16.569			-3.314
280800.000			-16.568			-3.314
280900.000			-16.567			-3.313
281002.000			-16.568			-3.314
281101.000			-16.568			-3.314
281201.000			-16.568			-3.314
281301.000			-16.568			-3.314
281400.000			-16.567			-3.313
281500.000			-16.567			-3.313
281601.000			-16.568			-3.314
281700.000			-16.566			-3.313
281800.000			-16.567			-3.313
281901.000			-16.568			-3.314
282001.000			-16.568			-3.314
282101.000			-16.567			-3.313
282201.000			-16.566			-3.313
282300.000			-16.566			-3.313
282400.000			-16.566			-3.313
282501.000			-16.566			-3.313
282600.000			-16.565			-3.313
282700.000			-16.565			-3.313
282801.000			-16.565			-3.313
282901.000			-16.566			-3.313
283002.000			-16.567			-3.313
283101.000			-16.566			-3.313
283200.000			-16.565			-3.313
283301.000			-16.565			-3.313
283400.000			-16.566			-3.313
283500.000			-16.565			-3.313
283601.000			-16.564			-3.313
283700.000			-16.564			-3.313
283800.000			-16.565			-3.313
283902.000			-16.564			-3.313
284001.000			-16.564			-3.313
284101.000			-16.565			-3.313
284201.000			-16.565			-3.313
284300.000			-16.564			-3.313
284400.000			-16.564			-3.313
284501.000			-16.564			-3.313
284600.000			-16.564			-3.313
284700.000			-16.563			-3.313
284801.000			-16.563			-3.313
284901.000			-16.563			-3.313
285001.000			-16.563			-3.313
285101.000			-16.563			-3.313
285200.000			-16.563			-3.313
285300.000			-16.562			-3.312
285401.000			-16.562			-3.312
285500.000			-16.563			-3.313
285600.000			-16.563			-3.313
285701.000			-16.562			-3.312
285801.000			-16.561			-3.312
285901.000			-16.561			-3.312
286002.000			-16.561			-3.312
286100.000			-16.561			-3.312
286200.000			-16.561			-3.312
286300.000			-16.560			-3.312
286400.000			-16.560			-3.312
286501.000			-16.560			-3.312
286600.000			-16.560			-3.312
286700.000			-16.560			-3.312
286802.000			-16.560			-3.312
286901.000			-16.560			-3.312
287000.000			-16.558			-3.312
287101.000			-16.559			-3.312
287200.000			-16.560			-3.312
287300.000			-16.560			-3.312
287401.000			-16.559			-3.312
287500.000			-16.559			-3.312
287600.000			-16.560			-3.312
287701.000			-16.560			-3.312
287801.000			-16.560			-3.312
287901.000			-16.560			-3.312
288001.000			-16.560			-3.312
288100.000			-16.558			-3.312
288200.000			-16.558			-3.312
288301.000			-16.558			-3.312
288400.000			-16.558			-3.312
288500.000			-16.557			-3.311
288601.000			-16.558			-3.312
288700.000			-16.557			-3.311
288801.000			-16.557			-3.311
288902.000			-16.559			-3.312
289001.000			-16.557			-3.311
289100.000			-16.557			-3.311
289201.000			-16.557			-3.311
289300.000			-16.558			-3.312
289400.000			-16.558			-3.312
289500.000			-16.558			-3.312
289600.000			-16.557			-3.311
289701.000			-16.557			-3.311
289801.000			-16.556			-3.311
289901.000			-16.556			-3.311
290001.000			-16.556			-3.311
290100.000			-16.556			-3.311
290200.000			-16.556			-3.311
290301.000			-16.557			-3.311
290400.000			-16.555			-3.311
290500.000			-16.555			-3.311
290601.000			-16.554			-3.311
290701.000			-16.554			-3.311
290801.000			-16.555			-3.311
290902.000			-16.555			-3.311
291000.000			-16.555			-3.311
291100.000			-16.555			-3.311
291201.000			-16.555			-3.311
291300.000			-16.555			-3.311
291400.000			-16.555			-3.311
291501.000			-16.555			-3.311
291601.000			-16.554			-3.311
291701.000			-16.554			-3.311
291802.000			-16.554			-3.311
291900.000			-16.553			-3.311
292000.000			-16.552			-3.310
292101.000			-16.552			-3.310
292200.000			-16.552			-3.310
292300.000			-16.554			-3.311
292401.000			-16.554			-3.311
292500.000			-16.553			-3.311
292602.000			-16.553			-3.311
292701.000			-16.554			-3.311
292801.000			-16.553			-3.311
292901.000			-16.553			-3.311
293000.000			-16.553			-3.311
293100.000			-16.553			-3.311
293201.000			-16.552			-3.310
293300.000			-16.552			-3.310
293400.000			-16.551			-3.310
293502.000			-16.552			-3.310
293601.000			-16.552			-3.310
293701.000			-16.552			-3.310
293801.000			-16.552			-3.310
293900.000			-16.554			-3.311
294000.000			-16.551			-3.310
294101.000			-16.550			-3.310
294200.000			-16.550			-3.310
294300.000			-16.551			-3.310
294401.000			-16.551			-3.310
294501.000			-16.550			-3.310
294601.000			-16.550			-3.310
294701.000			-16.550			-3.310
294800.000			-16.549			-3.310
294900.000			-16.549			-3.310
295001.000			-16.550			-3.310
295100.000			-16.550			-3.310
295200.000			-16.550			-3.310
295301.000			-16.549			-3.310
295400.000			-16.549			-3.310
295501.000			-16.548			-3.310
295602.000			-16.549			-3.310
295700.000			-16.549			-3.310
295800.000			-16.549			-3.310
295900.000			-16.549			-3.310
296000.000			-16.548			-3.310
296101.000			-16.548			-3.310
296200.000			-16.548			-3.310
296300.000			-16.547			-3.309
296401.000			-16.548			-3.310
296501.000			-16.548			-3.310
296601.000			-16.547			-3.309
296701.000			-16.547			-3.309
296800.000			-16.548			-3.310
296900.000			-16.548			-3.310
297001.000			-16.548			-3.310
297100.000			-16.548			-3.310
297200.000			-16.546			-3.309
297301.000			-16.546			-3.309
297401.000			-16.546			-3.309
297501.000			-16.546			-3.309
297602.000			-16.547			-3.309
297700.000			-16.546			-3.309
297800.000			-16.545			-3.309
297901.000			-16.545			-3.309
298000.000			-16.545			-3.309
298100.000			-16.546			-3.309
298201.000			-16.546			-3.309
298300.000			-16.545			-3.309
298400.000			-16.545			-3.309
298502.000			-16.545			-3.309
298601.000			-16.545			-3.309
298700.000			-16.545			-3.309
298801.000			-16.545			-3.309
298900.000			-16.544			-3.309
299000.000			-16.544			-3.309
299100.000			-16.544			-3.309
299200.000			-16.544			-3.309
299301.000			-16.545			-3.309
299401.000			-16.544			-3.309
299501.000			-16.545			-3.309
299602.000			-16.545			-3.309
299700.000			-16.544			-3.309
299800.000			-16.544			-3.309
299901.000			-16.544			-3.309
