# Acquired on 08/01/2024 18:06:29 
# SPIDER: Creep_6mm_0771453C
# CREEP MEASUREMENT

# time [ms]		force [N]		stiffness [N/mm]
1.000			-25.359			-4.227
101.000			-26.861			-4.477
202.000			-27.366			-4.561
300.000			-27.318			-4.553
400.000			-27.206			-4.534
501.000			-27.124			-4.521
600.000			-27.057			-4.509
700.000			-26.951			-4.492
802.000			-26.907			-4.485
901.000			-26.868			-4.478
1000.000			-26.832			-4.472
1101.000			-26.801			-4.467
1200.000			-26.770			-4.462
1301.000			-26.742			-4.457
1400.000			-26.690			-4.448
1500.000			-26.668			-4.445
1602.000			-26.645			-4.441
1701.000			-26.624			-4.437
1800.000			-26.604			-4.434
1901.000			-26.586			-4.431
2000.000			-26.567			-4.428
2100.000			-26.534			-4.422
2201.000			-26.518			-4.420
2301.000			-26.502			-4.417
2401.000			-26.487			-4.415
2501.000			-26.473			-4.412
2600.000			-26.459			-4.410
2700.000			-26.445			-4.408
2801.000			-26.420			-4.403
2900.000			-26.407			-4.401
3000.000			-26.395			-4.399
3102.000			-26.384			-4.397
3201.000			-26.372			-4.395
3300.000			-26.362			-4.394
3401.000			-26.351			-4.392
3500.000			-26.340			-4.390
3600.000			-26.321			-4.387
3701.000			-26.312			-4.385
3800.000			-26.302			-4.384
3901.000			-26.292			-4.382
4002.000			-26.283			-4.381
4100.000			-26.274			-4.379
4200.000			-26.265			-4.378
4301.000			-26.249			-4.375
4400.000			-26.240			-4.373
4501.000			-26.232			-4.372
4601.000			-26.224			-4.371
4701.000			-26.217			-4.369
4801.000			-26.209			-4.368
4900.000			-26.201			-4.367
5000.000			-26.188			-4.365
5101.000			-26.179			-4.363
5200.000			-26.172			-4.362
5300.000			-26.166			-4.361
5402.000			-26.159			-4.360
5501.000			-26.153			-4.359
5600.000			-26.147			-4.358
5701.000			-26.134			-4.356
5800.000			-26.127			-4.355
5900.000			-26.122			-4.354
6001.000			-26.115			-4.353
6100.000			-26.109			-4.351
6201.000			-26.103			-4.350
6302.000			-26.097			-4.350
6400.000			-26.092			-4.349
6500.000			-26.081			-4.347
6601.000			-26.074			-4.346
6700.000			-26.069			-4.345
6800.000			-26.065			-4.344
6902.000			-26.059			-4.343
7001.000			-26.052			-4.342
7100.000			-26.048			-4.341
7201.000			-26.038			-4.340
7300.000			-26.033			-4.339
7400.000			-26.028			-4.338
7501.000			-26.023			-4.337
7600.000			-26.019			-4.336
7702.000			-26.014			-4.336
7801.000			-26.009			-4.335
7900.000			-25.999			-4.333
8001.000			-25.995			-4.333
8100.000			-25.990			-4.332
8200.000			-25.985			-4.331
8301.000			-25.982			-4.330
8400.000			-25.978			-4.330
8501.000			-25.972			-4.329
8602.000			-25.965			-4.327
8700.000			-25.961			-4.327
8800.000			-25.957			-4.326
8901.000			-25.953			-4.325
9000.000			-25.948			-4.325
9100.000			-25.944			-4.324
9201.000			-25.939			-4.323
9301.000			-25.936			-4.323
9401.000			-25.927			-4.321
9501.000			-25.924			-4.321
9600.000			-25.920			-4.320
9700.000			-25.916			-4.319
9801.000			-25.912			-4.319
9900.000			-25.909			-4.318
10000.000			-25.905			-4.318
10102.000			-25.898			-4.316
10201.000			-25.895			-4.316
10300.000			-25.891			-4.315
10401.000			-25.886			-4.314
10500.000			-25.883			-4.314
10600.000			-25.880			-4.313
10701.000			-25.876			-4.313
10800.000			-25.869			-4.312
10902.000			-25.866			-4.311
11001.000			-25.863			-4.311
11100.000			-25.860			-4.310
11201.000			-25.856			-4.309
11300.000			-25.853			-4.309
11400.000			-25.850			-4.308
11501.000			-25.843			-4.307
11600.000			-25.840			-4.307
11701.000			-25.837			-4.306
11802.000			-25.834			-4.306
11900.000			-25.831			-4.305
12000.000			-25.828			-4.305
12101.000			-25.824			-4.304
12200.000			-25.821			-4.303
12300.000			-25.815			-4.303
12402.000			-25.811			-4.302
12501.000			-25.808			-4.301
12601.000			-25.807			-4.301
12701.000			-25.804			-4.301
12800.000			-25.800			-4.300
12900.000			-25.797			-4.300
13001.000			-25.792			-4.299
13100.000			-25.789			-4.298
13200.000			-25.786			-4.298
13302.000			-25.783			-4.297
13401.000			-25.782			-4.297
13500.000			-25.779			-4.296
13601.000			-25.777			-4.296
13700.000			-25.770			-4.295
13800.000			-25.767			-4.295
13901.000			-25.764			-4.294
14000.000			-25.762			-4.294
14102.000			-25.760			-4.293
14201.000			-25.757			-4.293
14300.000			-25.754			-4.292
14401.000			-25.748			-4.291
14500.000			-25.745			-4.291
14600.000			-25.743			-4.291
14701.000			-25.741			-4.290
14800.000			-25.738			-4.290
14901.000			-25.735			-4.289
15002.000			-25.733			-4.289
15100.000			-25.731			-4.289
15200.000			-25.726			-4.288
15301.000			-25.724			-4.287
15400.000			-25.723			-4.287
15500.000			-25.720			-4.287
15601.000			-25.717			-4.286
15701.000			-25.714			-4.286
15801.000			-25.712			-4.285
15901.000			-25.708			-4.285
16000.000			-25.705			-4.284
16100.000			-25.703			-4.284
16201.000			-25.702			-4.284
16300.000			-25.699			-4.283
16400.000			-25.696			-4.283
16502.000			-25.694			-4.282
16601.000			-25.689			-4.282
16700.000			-25.687			-4.281
16801.000			-25.684			-4.281
16900.000			-25.682			-4.280
17000.000			-25.680			-4.280
17101.000			-25.678			-4.280
17200.000			-25.675			-4.279
17302.000			-25.672			-4.279
17401.000			-25.670			-4.278
17500.000			-25.668			-4.278
17601.000			-25.665			-4.277
17700.000			-25.662			-4.277
17800.000			-25.661			-4.277
17901.000			-25.658			-4.276
18000.000			-25.656			-4.276
18101.000			-25.654			-4.276
18202.000			-25.651			-4.275
18300.000			-25.648			-4.275
18400.000			-25.647			-4.274
18501.000			-25.644			-4.274
18600.000			-25.643			-4.274
18700.000			-25.641			-4.273
18801.000			-25.636			-4.273
18901.000			-25.634			-4.272
19001.000			-25.634			-4.272
19101.000			-25.633			-4.272
19200.000			-25.629			-4.271
19300.000			-25.626			-4.271
19401.000			-25.624			-4.271
19500.000			-25.621			-4.270
19600.000			-25.621			-4.270
19701.000			-25.619			-4.270
19801.000			-25.615			-4.269
19901.000			-25.612			-4.269
20001.000			-25.611			-4.269
20100.000			-25.610			-4.268
20200.000			-25.606			-4.268
20301.000			-25.604			-4.267
20400.000			-25.602			-4.267
20502.000			-25.601			-4.267
20601.000			-25.598			-4.266
20700.000			-25.597			-4.266
20801.000			-25.596			-4.266
20900.000			-25.592			-4.265
21000.000			-25.590			-4.265
21101.000			-25.589			-4.265
21200.000			-25.586			-4.264
21300.000			-25.584			-4.264
21402.000			-25.583			-4.264
21501.000			-25.581			-4.264
21600.000			-25.579			-4.263
21701.000			-25.575			-4.262
21800.000			-25.574			-4.262
21900.000			-25.572			-4.262
22001.000			-25.570			-4.262
22101.000			-25.568			-4.261
22201.000			-25.566			-4.261
22302.000			-25.564			-4.261
22400.000			-25.561			-4.260
22500.000			-25.560			-4.260
22601.000			-25.558			-4.260
22700.000			-25.556			-4.259
22800.000			-25.555			-4.259
22901.000			-25.554			-4.259
23001.000			-25.552			-4.259
23101.000			-25.548			-4.258
23201.000			-25.547			-4.258
23300.000			-25.545			-4.258
23400.000			-25.543			-4.257
23501.000			-25.542			-4.257
23600.000			-25.541			-4.257
23701.000			-25.539			-4.256
23801.000			-25.536			-4.256
23901.000			-25.534			-4.256
24001.000			-25.533			-4.255
24100.000			-25.532			-4.255
24200.000			-25.531			-4.255
24301.000			-25.528			-4.255
24400.000			-25.525			-4.254
24500.000			-25.523			-4.254
24602.000			-25.522			-4.254
24701.000			-25.521			-4.254
24800.000			-25.519			-4.253
24901.000			-25.517			-4.253
25000.000			-25.515			-4.253
25100.000			-25.514			-4.252
25201.000			-25.512			-4.252
25300.000			-25.509			-4.252
25401.000			-25.507			-4.251
25502.000			-25.507			-4.251
25600.000			-25.505			-4.251
25700.000			-25.504			-4.251
25801.000			-25.503			-4.250
25900.000			-25.501			-4.250
26000.000			-25.499			-4.250
26101.000			-25.497			-4.250
26201.000			-25.495			-4.249
26301.000			-25.494			-4.249
26401.000			-25.492			-4.249
26500.000			-25.491			-4.248
26600.000			-25.489			-4.248
26701.000			-25.487			-4.248
26800.000			-25.485			-4.248
26901.000			-25.483			-4.247
27001.000			-25.482			-4.247
27101.000			-25.480			-4.247
27201.000			-25.479			-4.247
27300.000			-25.478			-4.246
27400.000			-25.477			-4.246
27501.000			-25.474			-4.246
27600.000			-25.473			-4.245
27700.000			-25.471			-4.245
27802.000			-25.470			-4.245
27901.000			-25.469			-4.245
28000.000			-25.468			-4.245
28101.000			-25.466			-4.244
28200.000			-25.462			-4.244
28300.000			-25.462			-4.244
28401.000			-25.461			-4.244
28500.000			-25.460			-4.243
28601.000			-25.458			-4.243
28702.000			-25.456			-4.243
28800.000			-25.455			-4.243
28900.000			-25.452			-4.242
29001.000			-25.452			-4.242
29100.000			-25.451			-4.242
29200.000			-25.449			-4.241
29301.000			-25.448			-4.241
29401.000			-25.447			-4.241
29501.000			-25.445			-4.241
29601.000			-25.442			-4.240
29700.000			-25.439			-4.240
29800.000			-25.439			-4.240
29901.000			-25.438			-4.240
30000.000			-25.438			-4.240
30101.000			-25.436			-4.239
30201.000			-25.434			-4.239
30301.000			-25.433			-4.239
30401.000			-25.432			-4.239
30500.000			-25.430			-4.238
30600.000			-25.429			-4.238
30701.000			-25.427			-4.238
30800.000			-25.426			-4.238
30900.000			-25.424			-4.237
31002.000			-25.423			-4.237
31101.000			-25.420			-4.237
31200.000			-25.420			-4.237
31301.000			-25.420			-4.237
31400.000			-25.418			-4.236
31500.000			-25.416			-4.236
31601.000			-25.414			-4.236
31700.000			-25.413			-4.236
31801.000			-25.411			-4.235
31902.000			-25.410			-4.235
32000.000			-25.409			-4.235
32100.000			-25.408			-4.235
32201.000			-25.406			-4.234
32300.000			-25.405			-4.234
32400.000			-25.405			-4.234
32502.000			-25.403			-4.234
32601.000			-25.401			-4.233
32700.000			-25.398			-4.233
32801.000			-25.398			-4.233
32900.000			-25.397			-4.233
33000.000			-25.396			-4.233
33101.000			-25.395			-4.232
33200.000			-25.394			-4.232
33301.000			-25.392			-4.232
33401.000			-25.391			-4.232
33501.000			-25.389			-4.231
33601.000			-25.387			-4.231
33700.000			-25.387			-4.231
33800.000			-25.386			-4.231
33901.000			-25.385			-4.231
34000.000			-25.383			-4.231
34100.000			-25.382			-4.230
34202.000			-25.380			-4.230
34301.000			-25.379			-4.230
34400.000			-25.378			-4.230
34501.000			-25.377			-4.229
34600.000			-25.375			-4.229
34700.000			-25.374			-4.229
34801.000			-25.372			-4.229
34900.000			-25.370			-4.228
35001.000			-25.371			-4.228
35102.000			-25.370			-4.228
35200.000			-25.368			-4.228
35300.000			-25.368			-4.228
35401.000			-25.366			-4.228
35500.000			-25.364			-4.227
35600.000			-25.362			-4.227
35701.000			-25.362			-4.227
35801.000			-25.361			-4.227
35901.000			-25.360			-4.227
36001.000			-25.360			-4.227
36100.000			-25.358			-4.226
36200.000			-25.355			-4.226
36301.000			-25.355			-4.226
36400.000			-25.354			-4.226
36501.000			-25.353			-4.225
36601.000			-25.351			-4.225
36701.000			-25.350			-4.225
36801.000			-25.348			-4.225
36900.000			-25.348			-4.225
37000.000			-25.347			-4.224
37101.000			-25.345			-4.224
37200.000			-25.345			-4.224
37300.000			-25.343			-4.224
37402.000			-25.341			-4.224
37501.000			-25.341			-4.223
37600.000			-25.338			-4.223
37701.000			-25.337			-4.223
37800.000			-25.336			-4.223
37900.000			-25.336			-4.223
38001.000			-25.334			-4.222
38100.000			-25.333			-4.222
38201.000			-25.332			-4.222
38302.000			-25.331			-4.222
38400.000			-25.330			-4.222
38500.000			-25.329			-4.222
38601.000			-25.328			-4.221
38700.000			-25.327			-4.221
38800.000			-25.326			-4.221
38901.000			-25.325			-4.221
39001.000			-25.322			-4.220
39101.000			-25.321			-4.220
39201.000			-25.321			-4.220
39300.000			-25.320			-4.220
39400.000			-25.320			-4.220
39501.000			-25.318			-4.220
39600.000			-25.317			-4.219
39701.000			-25.316			-4.219
39801.000			-25.314			-4.219
39901.000			-25.312			-4.219
40001.000			-25.313			-4.219
40100.000			-25.312			-4.219
40200.000			-25.311			-4.218
40301.000			-25.309			-4.218
40400.000			-25.308			-4.218
40501.000			-25.306			-4.218
40602.000			-25.305			-4.217
40700.000			-25.304			-4.217
40800.000			-25.304			-4.217
40901.000			-25.303			-4.217
41000.000			-25.301			-4.217
41100.000			-25.300			-4.217
41201.000			-25.299			-4.217
41301.000			-25.298			-4.216
41401.000			-25.297			-4.216
41501.000			-25.295			-4.216
41600.000			-25.295			-4.216
41700.000			-25.294			-4.216
41801.000			-25.293			-4.215
41900.000			-25.292			-4.215
42000.000			-25.292			-4.215
42102.000			-25.290			-4.215
42201.000			-25.290			-4.215
42300.000			-25.288			-4.215
42401.000			-25.286			-4.214
42500.000			-25.285			-4.214
42600.000			-25.284			-4.214
42701.000			-25.283			-4.214
42800.000			-25.282			-4.214
42902.000			-25.281			-4.214
43001.000			-25.280			-4.213
43100.000			-25.278			-4.213
43201.000			-25.278			-4.213
43300.000			-25.278			-4.213
43400.000			-25.276			-4.213
43501.000			-25.276			-4.213
43600.000			-25.275			-4.212
43701.000			-25.274			-4.212
43802.000			-25.273			-4.212
43900.000			-25.272			-4.212
44000.000			-25.271			-4.212
44101.000			-25.269			-4.211
44200.000			-25.267			-4.211
44300.000			-25.267			-4.211
44401.000			-25.267			-4.211
44501.000			-25.265			-4.211
44601.000			-25.265			-4.211
44701.000			-25.264			-4.211
44800.000			-25.261			-4.210
44900.000			-25.260			-4.210
45001.000			-25.260			-4.210
45100.000			-25.259			-4.210
45200.000			-25.258			-4.210
45302.000			-25.257			-4.210
45401.000			-25.257			-4.209
45500.000			-25.257			-4.209
45601.000			-25.256			-4.209
45700.000			-25.254			-4.209
45800.000			-25.253			-4.209
45901.000			-25.254			-4.209
46000.000			-25.252			-4.209
46102.000			-25.250			-4.208
46201.000			-25.250			-4.208
46300.000			-25.247			-4.208
46401.000			-25.247			-4.208
46500.000			-25.247			-4.208
46600.000			-25.246			-4.208
46701.000			-25.245			-4.207
46800.000			-25.245			-4.207
46901.000			-25.243			-4.207
47002.000			-25.242			-4.207
47100.000			-25.242			-4.207
47200.000			-25.241			-4.207
47301.000			-25.239			-4.207
47400.000			-25.237			-4.206
47500.000			-25.237			-4.206
47601.000			-25.236			-4.206
47701.000			-25.235			-4.206
47801.000			-25.235			-4.206
47901.000			-25.233			-4.206
48000.000			-25.232			-4.205
48100.000			-25.232			-4.205
48201.000			-25.231			-4.205
48300.000			-25.229			-4.205
48400.000			-25.229			-4.205
48502.000			-25.229			-4.205
48601.000			-25.227			-4.205
48701.000			-25.225			-4.204
48801.000			-25.224			-4.204
48900.000			-25.223			-4.204
49000.000			-25.222			-4.204
49101.000			-25.222			-4.204
49200.000			-25.221			-4.204
49302.000			-25.221			-4.203
49401.000			-25.220			-4.203
49501.000			-25.220			-4.203
49601.000			-25.219			-4.203
49700.000			-25.218			-4.203
49800.000			-25.216			-4.203
49901.000			-25.216			-4.203
50000.000			-25.215			-4.203
50100.000			-25.214			-4.202
50202.000			-25.212			-4.202
50300.000			-25.212			-4.202
50400.000			-25.212			-4.202
50501.000			-25.211			-4.202
50600.000			-25.210			-4.202
50700.000			-25.209			-4.202
50801.000			-25.208			-4.201
50901.000			-25.207			-4.201
51001.000			-25.206			-4.201
51101.000			-25.206			-4.201
51200.000			-25.205			-4.201
51300.000			-25.204			-4.201
51401.000			-25.203			-4.201
51500.000			-25.202			-4.200
51600.000			-25.201			-4.200
51702.000			-25.200			-4.200
51801.000			-25.200			-4.200
51900.000			-25.199			-4.200
52001.000			-25.198			-4.200
52100.000			-25.197			-4.199
52200.000			-25.196			-4.199
52301.000			-25.195			-4.199
52400.000			-25.194			-4.199
52502.000			-25.193			-4.199
52601.000			-25.193			-4.199
52700.000			-25.191			-4.199
52801.000			-25.191			-4.199
52900.000			-25.190			-4.198
53000.000			-25.188			-4.198
53101.000			-25.188			-4.198
53200.000			-25.188			-4.198
53301.000			-25.186			-4.198
53402.000			-25.186			-4.198
53500.000			-25.185			-4.198
53600.000			-25.184			-4.197
53701.000			-25.183			-4.197
53800.000			-25.182			-4.197
53900.000			-25.180			-4.197
54001.000			-25.181			-4.197
54101.000			-25.180			-4.197
54201.000			-25.179			-4.197
54301.000			-25.178			-4.196
54400.000			-25.178			-4.196
54500.000			-25.177			-4.196
54601.000			-25.176			-4.196
54700.000			-25.176			-4.196
54800.000			-25.175			-4.196
54902.000			-25.173			-4.196
55001.000			-25.172			-4.195
55100.000			-25.171			-4.195
55201.000			-25.171			-4.195
55300.000			-25.170			-4.195
55400.000			-25.170			-4.195
55501.000			-25.169			-4.195
55600.000			-25.167			-4.195
55702.000			-25.167			-4.194
55801.000			-25.167			-4.195
55900.000			-25.167			-4.194
56001.000			-25.164			-4.194
56100.000			-25.163			-4.194
56200.000			-25.163			-4.194
56301.000			-25.162			-4.194
56400.000			-25.162			-4.194
56501.000			-25.161			-4.193
56602.000			-25.159			-4.193
56700.000			-25.159			-4.193
56800.000			-25.158			-4.193
56901.000			-25.158			-4.193
57000.000			-25.157			-4.193
57100.000			-25.155			-4.192
57201.000			-25.154			-4.192
57301.000			-25.153			-4.192
57401.000			-25.154			-4.192
57501.000			-25.153			-4.192
57600.000			-25.152			-4.192
57700.000			-25.152			-4.192
57801.000			-25.150			-4.192
57900.000			-25.149			-4.192
58000.000			-25.149			-4.191
58102.000			-25.148			-4.191
58201.000			-25.148			-4.191
58300.000			-25.147			-4.191
58401.000			-25.147			-4.191
58500.000			-25.146			-4.191
58600.000			-25.144			-4.191
58701.000			-25.144			-4.191
58800.000			-25.143			-4.191
58902.000			-25.143			-4.190
59001.000			-25.142			-4.190
59100.000			-25.141			-4.190
59201.000			-25.140			-4.190
59300.000			-25.138			-4.190
59400.000			-25.138			-4.190
59501.000			-25.137			-4.189
59600.000			-25.136			-4.189
59701.000			-25.135			-4.189
59802.000			-25.134			-4.189
59900.000			-25.135			-4.189
60000.000			-25.134			-4.189
60101.000			-25.134			-4.189
60200.000			-25.133			-4.189
60300.000			-25.133			-4.189
60401.000			-25.131			-4.189
60501.000			-25.130			-4.188
60601.000			-25.130			-4.188
60701.000			-25.128			-4.188
60800.000			-25.128			-4.188
60900.000			-25.128			-4.188
61001.000			-25.127			-4.188
61100.000			-25.127			-4.188
61200.000			-25.126			-4.188
61302.000			-25.125			-4.187
61401.000			-25.123			-4.187
61500.000			-25.122			-4.187
61601.000			-25.123			-4.187
61700.000			-25.122			-4.187
61800.000			-25.121			-4.187
61901.000			-25.121			-4.187
62001.000			-25.119			-4.187
62102.000			-25.119			-4.186
62201.000			-25.117			-4.186
62300.000			-25.117			-4.186
62401.000			-25.117			-4.186
62500.000			-25.116			-4.186
62600.000			-25.116			-4.186
62701.000			-25.114			-4.186
62801.000			-25.114			-4.186
62901.000			-25.113			-4.186
63001.000			-25.113			-4.185
63100.000			-25.112			-4.185
63200.000			-25.112			-4.185
63301.000			-25.111			-4.185
63400.000			-25.111			-4.185
63500.000			-25.110			-4.185
63602.000			-25.108			-4.185
63701.000			-25.108			-4.185
63800.000			-25.107			-4.184
63901.000			-25.106			-4.184
64000.000			-25.104			-4.184
64100.000			-25.104			-4.184
64201.000			-25.104			-4.184
64300.000			-25.103			-4.184
64401.000			-25.102			-4.184
64502.000			-25.101			-4.184
64600.000			-25.102			-4.184
64700.000			-25.101			-4.183
64801.000			-25.100			-4.183
64900.000			-25.100			-4.183
65000.000			-25.098			-4.183
65101.000			-25.099			-4.183
65201.000			-25.098			-4.183
65302.000			-25.097			-4.183
65400.000			-25.096			-4.183
65500.000			-25.096			-4.183
65601.000			-25.095			-4.183
65700.000			-25.094			-4.182
65800.000			-25.093			-4.182
65901.000			-25.092			-4.182
66001.000			-25.091			-4.182
66101.000			-25.090			-4.182
66201.000			-25.091			-4.182
66300.000			-25.090			-4.182
66400.000			-25.089			-4.182
66501.000			-25.089			-4.181
66600.000			-25.088			-4.181
66700.000			-25.086			-4.181
66802.000			-25.086			-4.181
66901.000			-25.086			-4.181
67001.000			-25.086			-4.181
67101.000			-25.085			-4.181
67200.000			-25.084			-4.181
67300.000			-25.083			-4.180
67401.000			-25.082			-4.180
67500.000			-25.081			-4.180
67600.000			-25.081			-4.180
67702.000			-25.081			-4.180
67801.000			-25.080			-4.180
67900.000			-25.079			-4.180
68001.000			-25.079			-4.180
68100.000			-25.079			-4.180
68200.000			-25.077			-4.180
68301.000			-25.076			-4.179
68400.000			-25.076			-4.179
68502.000			-25.075			-4.179
68601.000			-25.074			-4.179
68700.000			-25.073			-4.179
68801.000			-25.073			-4.179
68900.000			-25.072			-4.179
69000.000			-25.072			-4.179
69101.000			-25.072			-4.179
69200.000			-25.073			-4.179
69301.000			-25.072			-4.179
69402.000			-25.070			-4.178
69501.000			-25.069			-4.178
69600.000			-25.068			-4.178
69701.000			-25.067			-4.178
69800.000			-25.067			-4.178
69900.000			-25.066			-4.178
70001.000			-25.066			-4.178
70100.000			-25.065			-4.178
70201.000			-25.063			-4.177
70302.000			-25.062			-4.177
70400.000			-25.062			-4.177
70500.000			-25.062			-4.177
70601.000			-25.061			-4.177
70700.000			-25.061			-4.177
70800.000			-25.060			-4.177
70902.000			-25.060			-4.177
71001.000			-25.059			-4.176
71101.000			-25.059			-4.176
71201.000			-25.059			-4.176
71300.000			-25.057			-4.176
71400.000			-25.056			-4.176
71501.000			-25.057			-4.176
71600.000			-25.055			-4.176
71702.000			-25.054			-4.176
71801.000			-25.054			-4.176
71901.000			-25.054			-4.176
72001.000			-25.053			-4.176
72100.000			-25.052			-4.175
72200.000			-25.052			-4.175
72301.000			-25.050			-4.175
72400.000			-25.051			-4.175
72500.000			-25.050			-4.175
72602.000			-25.050			-4.175
72701.000			-25.049			-4.175
72800.000			-25.047			-4.175
72901.000			-25.048			-4.175
73000.000			-25.047			-4.174
73100.000			-25.045			-4.174
73201.000			-25.045			-4.174
73300.000			-25.046			-4.174
73401.000			-25.045			-4.174
73502.000			-25.043			-4.174
73600.000			-25.042			-4.174
73700.000			-25.043			-4.174
73801.000			-25.042			-4.174
73900.000			-25.040			-4.173
74000.000			-25.039			-4.173
74101.000			-25.040			-4.173
74201.000			-25.040			-4.173
74301.000			-25.039			-4.173
74401.000			-25.038			-4.173
74500.000			-25.038			-4.173
74600.000			-25.037			-4.173
74701.000			-25.036			-4.173
74800.000			-25.036			-4.173
74901.000			-25.036			-4.173
75001.000			-25.035			-4.172
75101.000			-25.034			-4.172
75201.000			-25.033			-4.172
75300.000			-25.033			-4.172
75400.000			-25.032			-4.172
75501.000			-25.032			-4.172
75600.000			-25.032			-4.172
75700.000			-25.031			-4.172
75802.000			-25.030			-4.172
75901.000			-25.028			-4.171
76000.000			-25.029			-4.171
76101.000			-25.028			-4.171
76200.000			-25.028			-4.171
76300.000			-25.028			-4.171
76401.000			-25.028			-4.171
76500.000			-25.027			-4.171
76601.000			-25.026			-4.171
76702.000			-25.025			-4.171
76800.000			-25.025			-4.171
76900.000			-25.024			-4.171
77001.000			-25.023			-4.170
77100.000			-25.023			-4.170
77200.000			-25.022			-4.170
77301.000			-25.021			-4.170
77401.000			-25.021			-4.170
77501.000			-25.020			-4.170
77601.000			-25.019			-4.170
77700.000			-25.018			-4.170
77800.000			-25.018			-4.170
77901.000			-25.018			-4.170
78000.000			-25.018			-4.170
78101.000			-25.017			-4.169
78201.000			-25.017			-4.169
78301.000			-25.015			-4.169
78401.000			-25.015			-4.169
78500.000			-25.015			-4.169
78600.000			-25.015			-4.169
78701.000			-25.015			-4.169
78800.000			-25.011			-4.169
78900.000			-25.012			-4.169
79002.000			-25.012			-4.169
79101.000			-25.011			-4.169
79200.000			-25.011			-4.168
79301.000			-25.010			-4.168
79400.000			-25.010			-4.168
79500.000			-25.009			-4.168
79601.000			-25.009			-4.168
79700.000			-25.007			-4.168
79801.000			-25.006			-4.168
79902.000			-25.006			-4.168
80000.000			-25.007			-4.168
80100.000			-25.006			-4.168
80201.000			-25.005			-4.168
80300.000			-25.004			-4.167
80400.000			-25.004			-4.167
80501.000			-25.004			-4.167
80601.000			-25.004			-4.167
80701.000			-25.003			-4.167
80801.000			-25.001			-4.167
80900.000			-25.001			-4.167
81000.000			-25.001			-4.167
81101.000			-25.001			-4.167
81200.000			-25.000			-4.167
81301.000			-24.999			-4.167
81401.000			-24.998			-4.166
81501.000			-24.998			-4.166
81601.000			-24.998			-4.166
81700.000			-24.997			-4.166
81800.000			-24.996			-4.166
81901.000			-24.996			-4.166
82000.000			-24.995			-4.166
82100.000			-24.995			-4.166
82202.000			-24.994			-4.166
82301.000			-24.994			-4.166
82401.000			-24.992			-4.165
82501.000			-24.991			-4.165
82600.000			-24.991			-4.165
82700.000			-24.991			-4.165
82801.000			-24.993			-4.165
82900.000			-24.991			-4.165
83000.000			-24.990			-4.165
83102.000			-24.988			-4.165
83201.000			-24.987			-4.165
83300.000			-24.988			-4.165
83401.000			-24.988			-4.165
83500.000			-24.987			-4.165
83600.000			-24.986			-4.164
83701.000			-24.986			-4.164
83800.000			-24.985			-4.164
83901.000			-24.984			-4.164
84002.000			-24.984			-4.164
84101.000			-24.985			-4.164
84200.000			-24.984			-4.164
84301.000			-24.982			-4.164
84400.000			-24.982			-4.164
84501.000			-24.982			-4.164
84600.000			-24.981			-4.163
84700.000			-24.980			-4.163
84802.000			-24.980			-4.163
84901.000			-24.980			-4.163
85000.000			-24.979			-4.163
85101.000			-24.979			-4.163
85200.000			-24.978			-4.163
85300.000			-24.977			-4.163
85401.000			-24.976			-4.163
85500.000			-24.975			-4.163
85601.000			-24.975			-4.163
85702.000			-24.975			-4.162
85801.000			-24.975			-4.162
85900.000			-24.974			-4.162
86001.000			-24.974			-4.162
86100.000			-24.973			-4.162
86200.000			-24.973			-4.162
86301.000			-24.972			-4.162
86400.000			-24.971			-4.162
86501.000			-24.971			-4.162
86602.000			-24.970			-4.162
86700.000			-24.970			-4.162
86800.000			-24.970			-4.162
86901.000			-24.969			-4.161
87000.000			-24.968			-4.161
87100.000			-24.969			-4.162
87201.000			-24.968			-4.161
87301.000			-24.967			-4.161
87401.000			-24.967			-4.161
87502.000			-24.966			-4.161
87600.000			-24.965			-4.161
87701.000			-24.965			-4.161
87800.000			-24.965			-4.161
87900.000			-24.965			-4.161
88001.000			-24.964			-4.161
88100.000			-24.963			-4.161
88201.000			-24.962			-4.160
88302.000			-24.963			-4.160
88401.000			-24.962			-4.160
88500.000			-24.961			-4.160
88601.000			-24.961			-4.160
88700.000			-24.961			-4.160
88800.000			-24.960			-4.160
88901.000			-24.959			-4.160
89000.000			-24.958			-4.160
89101.000			-24.958			-4.160
89202.000			-24.956			-4.159
89300.000			-24.956			-4.159
89400.000			-24.956			-4.159
89501.000			-24.956			-4.159
89600.000			-24.955			-4.159
89700.000			-24.954			-4.159
89801.000			-24.954			-4.159
89901.000			-24.954			-4.159
90001.000			-24.954			-4.159
90101.000			-24.953			-4.159
90200.000			-24.953			-4.159
90300.000			-24.953			-4.159
90401.000			-24.951			-4.158
90500.000			-24.951			-4.159
90600.000			-24.951			-4.158
90702.000			-24.950			-4.158
90801.000			-24.949			-4.158
90902.000			-24.950			-4.158
91000.000			-24.950			-4.158
91100.000			-24.949			-4.158
91201.000			-24.949			-4.158
91300.000			-24.947			-4.158
91400.000			-24.947			-4.158
91501.000			-24.946			-4.158
91601.000			-24.946			-4.158
91701.000			-24.946			-4.158
91801.000			-24.944			-4.157
91900.000			-24.944			-4.157
92000.000			-24.943			-4.157
92101.000			-24.943			-4.157
92200.000			-24.943			-4.157
92300.000			-24.942			-4.157
92402.000			-24.941			-4.157
92501.000			-24.940			-4.157
92601.000			-24.940			-4.157
92701.000			-24.940			-4.157
92800.000			-24.940			-4.157
92900.000			-24.940			-4.157
93001.000			-24.939			-4.156
93100.000			-24.938			-4.156
93200.000			-24.937			-4.156
93302.000			-24.938			-4.156
93401.000			-24.937			-4.156
93500.000			-24.936			-4.156
93601.000			-24.936			-4.156
93700.000			-24.935			-4.156
93800.000			-24.935			-4.156
93901.000			-24.934			-4.156
94000.000			-24.933			-4.156
94102.000			-24.932			-4.155
94201.000			-24.932			-4.155
94300.000			-24.932			-4.155
94401.000			-24.932			-4.155
94500.000			-24.931			-4.155
94600.000			-24.931			-4.155
94701.000			-24.930			-4.155
94800.000			-24.930			-4.155
94900.000			-24.929			-4.155
95002.000			-24.929			-4.155
95101.000			-24.929			-4.155
95200.000			-24.927			-4.155
95301.000			-24.927			-4.155
95400.000			-24.927			-4.154
95500.000			-24.927			-4.154
95601.000			-24.926			-4.154
95700.000			-24.926			-4.154
95801.000			-24.926			-4.154
95902.000			-24.925			-4.154
96000.000			-24.925			-4.154
96100.000			-24.925			-4.154
96201.000			-24.922			-4.154
96300.000			-24.922			-4.154
96400.000			-24.923			-4.154
96501.000			-24.922			-4.154
96600.000			-24.921			-4.154
96701.000			-24.922			-4.154
96802.000			-24.921			-4.154
96900.000			-24.921			-4.153
97000.000			-24.920			-4.153
97101.000			-24.920			-4.153
97200.000			-24.918			-4.153
97301.000			-24.918			-4.153
97400.000			-24.919			-4.153
97501.000			-24.919			-4.153
97602.000			-24.916			-4.153
97700.000			-24.915			-4.152
97800.000			-24.915			-4.153
97901.000			-24.916			-4.153
98000.000			-24.916			-4.153
98100.000			-24.914			-4.152
98201.000			-24.913			-4.152
98300.000			-24.913			-4.152
98401.000			-24.912			-4.152
98502.000			-24.912			-4.152
98600.000			-24.913			-4.152
98700.000			-24.912			-4.152
98801.000			-24.912			-4.152
98900.000			-24.911			-4.152
99000.000			-24.910			-4.152
99101.000			-24.909			-4.152
99201.000			-24.909			-4.151
99301.000			-24.909			-4.151
99401.000			-24.908			-4.151
99500.000			-24.908			-4.151
99600.000			-24.907			-4.151
99701.000			-24.907			-4.151
99800.000			-24.907			-4.151
99900.000			-24.906			-4.151
100001.000			-24.906			-4.151
100101.000			-24.905			-4.151
100201.000			-24.904			-4.151
100301.000			-24.904			-4.151
100400.000			-24.904			-4.151
100501.000			-24.903			-4.151
100600.000			-24.903			-4.150
100700.000			-24.902			-4.150
100801.000			-24.903			-4.150
100901.000			-24.903			-4.150
101001.000			-24.902			-4.150
101101.000			-24.902			-4.150
101200.000			-24.901			-4.150
101300.000			-24.900			-4.150
101401.000			-24.900			-4.150
101500.000			-24.899			-4.150
101600.000			-24.899			-4.150
101702.000			-24.898			-4.150
101801.000			-24.897			-4.150
101901.000			-24.898			-4.150
102001.000			-24.897			-4.150
102100.000			-24.896			-4.149
102200.000			-24.895			-4.149
102301.000			-24.895			-4.149
102400.000			-24.896			-4.149
102500.000			-24.895			-4.149
102601.000			-24.894			-4.149
102701.000			-24.893			-4.149
102801.000			-24.893			-4.149
102901.000			-24.893			-4.149
103000.000			-24.892			-4.149
103100.000			-24.892			-4.149
103201.000			-24.891			-4.149
103300.000			-24.892			-4.149
103400.000			-24.890			-4.148
103502.000			-24.890			-4.148
103601.000			-24.890			-4.148
103701.000			-24.890			-4.148
103800.000			-24.890			-4.148
103900.000			-24.888			-4.148
104001.000			-24.888			-4.148
104100.000			-24.888			-4.148
104200.000			-24.887			-4.148
104301.000			-24.887			-4.148
104401.000			-24.886			-4.148
104501.000			-24.886			-4.148
104601.000			-24.886			-4.148
104700.000			-24.885			-4.148
104800.000			-24.884			-4.147
104901.000			-24.883			-4.147
105000.000			-24.883			-4.147
105100.000			-24.883			-4.147
105202.000			-24.883			-4.147
105301.000			-24.882			-4.147
105401.000			-24.883			-4.147
105501.000			-24.882			-4.147
105600.000			-24.882			-4.147
105700.000			-24.882			-4.147
105801.000			-24.881			-4.147
105900.000			-24.881			-4.147
106000.000			-24.880			-4.147
106102.000			-24.880			-4.147
106201.000			-24.878			-4.146
106300.000			-24.878			-4.146
106401.000			-24.878			-4.146
106500.000			-24.876			-4.146
106600.000			-24.876			-4.146
106701.000			-24.876			-4.146
106800.000			-24.876			-4.146
106901.000			-24.876			-4.146
107001.000			-24.875			-4.146
107101.000			-24.874			-4.146
107201.000			-24.874			-4.146
107300.000			-24.874			-4.146
107400.000			-24.874			-4.146
107501.000			-24.874			-4.146
107600.000			-24.873			-4.146
107700.000			-24.872			-4.145
107801.000			-24.872			-4.145
107901.000			-24.871			-4.145
108001.000			-24.871			-4.145
108101.000			-24.871			-4.145
108200.000			-24.870			-4.145
108300.000			-24.871			-4.145
108401.000			-24.870			-4.145
108500.000			-24.870			-4.145
108600.000			-24.869			-4.145
108702.000			-24.868			-4.145
108801.000			-24.868			-4.145
108901.000			-24.867			-4.145
109001.000			-24.866			-4.144
109100.000			-24.866			-4.144
109200.000			-24.867			-4.144
109301.000			-24.866			-4.144
109400.000			-24.865			-4.144
109500.000			-24.864			-4.144
109602.000			-24.864			-4.144
109701.000			-24.864			-4.144
109801.000			-24.864			-4.144
109901.000			-24.863			-4.144
110000.000			-24.863			-4.144
110101.000			-24.862			-4.144
110200.000			-24.861			-4.144
110300.000			-24.862			-4.144
110401.000			-24.863			-4.144
110501.000			-24.863			-4.144
110601.000			-24.861			-4.143
110701.000			-24.860			-4.143
110800.000			-24.859			-4.143
110900.000			-24.859			-4.143
111001.000			-24.859			-4.143
111100.000			-24.859			-4.143
111200.000			-24.858			-4.143
111302.000			-24.858			-4.143
111401.000			-24.857			-4.143
111501.000			-24.856			-4.143
111601.000			-24.856			-4.143
111700.000			-24.855			-4.143
111800.000			-24.856			-4.143
111901.000			-24.856			-4.143
112000.000			-24.855			-4.142
112100.000			-24.854			-4.142
112202.000			-24.854			-4.142
112301.000			-24.854			-4.142
112400.000			-24.853			-4.142
112501.000			-24.853			-4.142
112600.000			-24.853			-4.142
112700.000			-24.852			-4.142
112801.000			-24.852			-4.142
112900.000			-24.852			-4.142
113001.000			-24.852			-4.142
113102.000			-24.851			-4.142
113201.000			-24.851			-4.142
113301.000			-24.850			-4.142
113400.000			-24.849			-4.142
113500.000			-24.849			-4.141
113601.000			-24.849			-4.141
113700.000			-24.848			-4.141
113800.000			-24.848			-4.141
113902.000			-24.847			-4.141
114001.000			-24.847			-4.141
114100.000			-24.847			-4.141
114201.000			-24.846			-4.141
114300.000			-24.846			-4.141
114400.000			-24.846			-4.141
114501.000			-24.846			-4.141
114600.000			-24.845			-4.141
114701.000			-24.846			-4.141
114802.000			-24.845			-4.141
114901.000			-24.844			-4.141
115000.000			-24.843			-4.140
115101.000			-24.843			-4.141
115200.000			-24.842			-4.140
115300.000			-24.842			-4.140
115401.000			-24.841			-4.140
115500.000			-24.841			-4.140
115601.000			-24.842			-4.140
115702.000			-24.840			-4.140
115800.000			-24.840			-4.140
115900.000			-24.840			-4.140
116001.000			-24.839			-4.140
116100.000			-24.839			-4.140
116200.000			-24.838			-4.140
116301.000			-24.837			-4.140
116401.000			-24.837			-4.140
116502.000			-24.837			-4.139
116601.000			-24.837			-4.140
116700.000			-24.837			-4.139
116801.000			-24.836			-4.139
116900.000			-24.836			-4.139
117000.000			-24.835			-4.139
117101.000			-24.832			-4.139
117200.000			-24.833			-4.139
117301.000			-24.834			-4.139
117402.000			-24.834			-4.139
117500.000			-24.834			-4.139
117600.000			-24.832			-4.139
117701.000			-24.832			-4.139
117800.000			-24.833			-4.139
117900.000			-24.832			-4.139
118001.000			-24.832			-4.139
118100.000			-24.832			-4.139
118201.000			-24.831			-4.138
118302.000			-24.830			-4.138
118400.000			-24.830			-4.138
118500.000			-24.830			-4.138
118601.000			-24.828			-4.138
118700.000			-24.829			-4.138
118800.000			-24.828			-4.138
118901.000			-24.828			-4.138
119001.000			-24.828			-4.138
119101.000			-24.827			-4.138
119201.000			-24.827			-4.138
119300.000			-24.826			-4.138
119400.000			-24.826			-4.138
119501.000			-24.826			-4.138
119600.000			-24.825			-4.137
119701.000			-24.824			-4.137
119800.000			-24.825			-4.137
119901.000			-24.824			-4.137
120002.000			-24.823			-4.137
120100.000			-24.822			-4.137
120200.000			-24.823			-4.137
120301.000			-24.822			-4.137
120400.000			-24.822			-4.137
120500.000			-24.822			-4.137
120601.000			-24.822			-4.137
120701.000			-24.821			-4.137
120801.000			-24.820			-4.137
120901.000			-24.820			-4.137
121000.000			-24.820			-4.137
121100.000			-24.820			-4.137
121201.000			-24.820			-4.137
121300.000			-24.819			-4.136
121400.000			-24.818			-4.136
121502.000			-24.818			-4.136
121601.000			-24.819			-4.136
121701.000			-24.818			-4.136
121801.000			-24.817			-4.136
121900.000			-24.816			-4.136
122000.000			-24.817			-4.136
122101.000			-24.816			-4.136
122200.000			-24.815			-4.136
122300.000			-24.815			-4.136
122402.000			-24.815			-4.136
122501.000			-24.814			-4.136
122600.000			-24.813			-4.136
122701.000			-24.813			-4.136
122800.000			-24.813			-4.135
122901.000			-24.812			-4.135
123000.000			-24.812			-4.135
123100.000			-24.813			-4.135
123202.000			-24.812			-4.135
123301.000			-24.810			-4.135
123401.000			-24.810			-4.135
123501.000			-24.811			-4.135
123600.000			-24.810			-4.135
123700.000			-24.811			-4.135
123801.000			-24.810			-4.135
123900.000			-24.809			-4.135
124000.000			-24.809			-4.135
124102.000			-24.808			-4.135
124201.000			-24.808			-4.135
124300.000			-24.807			-4.135
124401.000			-24.806			-4.134
124500.000			-24.806			-4.134
124600.000			-24.807			-4.134
124701.000			-24.806			-4.134
124800.000			-24.805			-4.134
124901.000			-24.805			-4.134
125002.000			-24.805			-4.134
125100.000			-24.804			-4.134
125200.000			-24.804			-4.134
125301.000			-24.804			-4.134
125400.000			-24.804			-4.134
125500.000			-24.802			-4.134
125601.000			-24.804			-4.134
125700.000			-24.803			-4.134
125801.000			-24.801			-4.134
125902.000			-24.801			-4.133
126000.000			-24.801			-4.134
126101.000			-24.801			-4.134
126200.000			-24.801			-4.133
126300.000			-24.800			-4.133
126401.000			-24.800			-4.133
126500.000			-24.800			-4.133
126601.000			-24.799			-4.133
126702.000			-24.799			-4.133
126801.000			-24.799			-4.133
126900.000			-24.798			-4.133
127001.000			-24.798			-4.133
127100.000			-24.797			-4.133
127200.000			-24.797			-4.133
127301.000			-24.797			-4.133
127400.000			-24.797			-4.133
127501.000			-24.796			-4.133
127602.000			-24.796			-4.133
127701.000			-24.797			-4.133
127800.000			-24.795			-4.133
127901.000			-24.795			-4.132
128000.000			-24.795			-4.133
128100.000			-24.795			-4.132
128201.000			-24.795			-4.132
128300.000			-24.793			-4.132
128401.000			-24.793			-4.132
128502.000			-24.793			-4.132
128601.000			-24.793			-4.132
128700.000			-24.791			-4.132
128801.000			-24.791			-4.132
128900.000			-24.791			-4.132
129000.000			-24.792			-4.132
129101.000			-24.792			-4.132
129200.000			-24.791			-4.132
129302.000			-24.789			-4.132
129401.000			-24.790			-4.132
129501.000			-24.789			-4.131
129601.000			-24.789			-4.131
129700.000			-24.789			-4.132
129800.000			-24.789			-4.132
129901.000			-24.789			-4.132
130000.000			-24.789			-4.131
130100.000			-24.788			-4.131
130202.000			-24.787			-4.131
130301.000			-24.786			-4.131
130401.000			-24.787			-4.131
130501.000			-24.786			-4.131
130600.000			-24.785			-4.131
130700.000			-24.786			-4.131
130801.000			-24.786			-4.131
130900.000			-24.785			-4.131
131000.000			-24.784			-4.131
131102.000			-24.784			-4.131
131201.000			-24.783			-4.131
131300.000			-24.783			-4.130
131401.000			-24.783			-4.130
131500.000			-24.782			-4.130
131600.000			-24.782			-4.130
131701.000			-24.781			-4.130
131800.000			-24.781			-4.130
131900.000			-24.782			-4.130
132002.000			-24.782			-4.130
132101.000			-24.782			-4.130
132201.000			-24.781			-4.130
132301.000			-24.779			-4.130
132400.000			-24.780			-4.130
132501.000			-24.779			-4.130
132600.000			-24.779			-4.130
132700.000			-24.779			-4.130
132801.000			-24.779			-4.130
132900.000			-24.778			-4.130
133001.000			-24.777			-4.130
133102.000			-24.777			-4.130
133201.000			-24.777			-4.130
133300.000			-24.777			-4.129
133401.000			-24.776			-4.129
133500.000			-24.775			-4.129
133600.000			-24.775			-4.129
133701.000			-24.775			-4.129
133800.000			-24.774			-4.129
133900.000			-24.774			-4.129
134002.000			-24.774			-4.129
134101.000			-24.775			-4.129
134200.000			-24.775			-4.129
134301.000			-24.774			-4.129
134400.000			-24.772			-4.129
134500.000			-24.773			-4.129
134601.000			-24.772			-4.129
134700.000			-24.771			-4.129
134800.000			-24.771			-4.128
134902.000			-24.770			-4.128
135001.000			-24.771			-4.128
135100.000			-24.771			-4.129
135201.000			-24.770			-4.128
135300.000			-24.769			-4.128
135400.000			-24.769			-4.128
135501.000			-24.769			-4.128
135600.000			-24.768			-4.128
135701.000			-24.768			-4.128
135801.000			-24.768			-4.128
135901.000			-24.767			-4.128
136002.000			-24.768			-4.128
136100.000			-24.767			-4.128
136200.000			-24.766			-4.128
136301.000			-24.765			-4.128
136400.000			-24.766			-4.128
136500.000			-24.765			-4.128
136601.000			-24.764			-4.127
136700.000			-24.765			-4.127
136801.000			-24.764			-4.127
136902.000			-24.763			-4.127
137001.000			-24.764			-4.127
137100.000			-24.764			-4.127
137201.000			-24.763			-4.127
137300.000			-24.763			-4.127
137400.000			-24.762			-4.127
137501.000			-24.761			-4.127
137600.000			-24.761			-4.127
137700.000			-24.761			-4.127
137802.000			-24.761			-4.127
137901.000			-24.760			-4.127
138000.000			-24.760			-4.127
138101.000			-24.760			-4.127
138200.000			-24.759			-4.126
138300.000			-24.759			-4.126
138401.000			-24.760			-4.127
138500.000			-24.759			-4.126
138600.000			-24.758			-4.126
138702.000			-24.757			-4.126
138801.000			-24.758			-4.126
138902.000			-24.756			-4.126
139000.000			-24.756			-4.126
139100.000			-24.756			-4.126
139201.000			-24.756			-4.126
139300.000			-24.757			-4.126
139400.000			-24.756			-4.126
139501.000			-24.755			-4.126
139600.000			-24.754			-4.126
139701.000			-24.754			-4.126
139802.000			-24.754			-4.126
139901.000			-24.754			-4.126
140000.000			-24.753			-4.126
140101.000			-24.753			-4.125
140200.000			-24.754			-4.126
140300.000			-24.752			-4.125
140401.000			-24.752			-4.125
140500.000			-24.752			-4.125
140601.000			-24.752			-4.125
140702.000			-24.752			-4.125
140801.000			-24.752			-4.125
140900.000			-24.751			-4.125
141001.000			-24.751			-4.125
141100.000			-24.752			-4.125
141200.000			-24.751			-4.125
141301.000			-24.750			-4.125
141400.000			-24.749			-4.125
141501.000			-24.749			-4.125
141602.000			-24.749			-4.125
141701.000			-24.748			-4.125
141800.000			-24.747			-4.125
141901.000			-24.747			-4.124
142000.000			-24.747			-4.124
142101.000			-24.749			-4.125
142200.000			-24.748			-4.125
142300.000			-24.747			-4.124
142401.000			-24.745			-4.124
142501.000			-24.745			-4.124
142601.000			-24.744			-4.124
142701.000			-24.744			-4.124
142800.000			-24.744			-4.124
142900.000			-24.744			-4.124
143001.000			-24.743			-4.124
143100.000			-24.742			-4.124
143200.000			-24.742			-4.124
143301.000			-24.742			-4.124
143401.000			-24.741			-4.124
143501.000			-24.741			-4.124
143601.000			-24.741			-4.124
143700.000			-24.741			-4.123
143800.000			-24.742			-4.124
143901.000			-24.740			-4.123
144000.000			-24.739			-4.123
144100.000			-24.740			-4.123
144201.000			-24.739			-4.123
144301.000			-24.739			-4.123
144401.000			-24.739			-4.123
144502.000			-24.739			-4.123
144600.000			-24.739			-4.123
144700.000			-24.738			-4.123
144801.000			-24.738			-4.123
144900.000			-24.738			-4.123
145000.000			-24.737			-4.123
145101.000			-24.736			-4.123
145200.000			-24.735			-4.123
145302.000			-24.735			-4.123
145401.000			-24.735			-4.122
145500.000			-24.734			-4.122
145601.000			-24.735			-4.122
145700.000			-24.734			-4.122
145800.000			-24.734			-4.122
145901.000			-24.733			-4.122
146000.000			-24.734			-4.122
146100.000			-24.733			-4.122
146202.000			-24.733			-4.122
146301.000			-24.733			-4.122
146401.000			-24.732			-4.122
146501.000			-24.733			-4.122
146600.000			-24.733			-4.122
146700.000			-24.731			-4.122
146801.000			-24.731			-4.122
146900.000			-24.731			-4.122
147000.000			-24.731			-4.122
147101.000			-24.731			-4.122
147201.000			-24.731			-4.122
147301.000			-24.730			-4.122
147401.000			-24.729			-4.122
147500.000			-24.730			-4.122
147600.000			-24.730			-4.122
147701.000			-24.728			-4.121
147800.000			-24.729			-4.121
147900.000			-24.729			-4.121
148001.000			-24.727			-4.121
148101.000			-24.728			-4.121
148201.000			-24.727			-4.121
148302.000			-24.727			-4.121
148400.000			-24.727			-4.121
148501.000			-24.726			-4.121
148600.000			-24.726			-4.121
148700.000			-24.726			-4.121
148801.000			-24.726			-4.121
148900.000			-24.725			-4.121
149000.000			-24.725			-4.121
149102.000			-24.724			-4.121
149201.000			-24.724			-4.121
149300.000			-24.724			-4.121
149401.000			-24.724			-4.121
149500.000			-24.723			-4.121
149600.000			-24.723			-4.120
149701.000			-24.723			-4.121
149800.000			-24.723			-4.120
149900.000			-24.721			-4.120
150002.000			-24.721			-4.120
150101.000			-24.721			-4.120
150200.000			-24.721			-4.120
150301.000			-24.721			-4.120
150400.000			-24.720			-4.120
150500.000			-24.720			-4.120
150601.000			-24.720			-4.120
150700.000			-24.720			-4.120
150800.000			-24.719			-4.120
150902.000			-24.718			-4.120
151001.000			-24.718			-4.120
151101.000			-24.718			-4.120
151201.000			-24.719			-4.120
151300.000			-24.718			-4.120
151400.000			-24.717			-4.119
151501.000			-24.717			-4.119
151600.000			-24.716			-4.119
151701.000			-24.716			-4.119
151800.000			-24.715			-4.119
151901.000			-24.715			-4.119
152002.000			-24.715			-4.119
152100.000			-24.715			-4.119
152200.000			-24.714			-4.119
152301.000			-24.714			-4.119
152400.000			-24.714			-4.119
152500.000			-24.714			-4.119
152601.000			-24.713			-4.119
152700.000			-24.714			-4.119
152801.000			-24.713			-4.119
152902.000			-24.712			-4.119
153000.000			-24.713			-4.119
153100.000			-24.713			-4.119
153201.000			-24.712			-4.119
153300.000			-24.712			-4.119
153400.000			-24.711			-4.119
153501.000			-24.710			-4.118
153600.000			-24.710			-4.118
153701.000			-24.711			-4.118
153802.000			-24.711			-4.118
153900.000			-24.711			-4.119
154000.000			-24.711			-4.119
154101.000			-24.711			-4.118
154200.000			-24.709			-4.118
154300.000			-24.709			-4.118
154401.000			-24.708			-4.118
154500.000			-24.708			-4.118
154601.000			-24.707			-4.118
154702.000			-24.707			-4.118
154801.000			-24.707			-4.118
154901.000			-24.706			-4.118
155000.000			-24.707			-4.118
155100.000			-24.707			-4.118
155201.000			-24.706			-4.118
155300.000			-24.705			-4.117
155400.000			-24.705			-4.118
155501.000			-24.705			-4.117
155601.000			-24.705			-4.118
155701.000			-24.705			-4.118
155801.000			-24.704			-4.117
155900.000			-24.703			-4.117
156000.000			-24.704			-4.117
156101.000			-24.704			-4.117
156200.000			-24.704			-4.117
156300.000			-24.705			-4.117
156401.000			-24.704			-4.117
156501.000			-24.702			-4.117
156601.000			-24.702			-4.117
156701.000			-24.701			-4.117
156800.000			-24.702			-4.117
156900.000			-24.701			-4.117
157001.000			-24.701			-4.117
157100.000			-24.701			-4.117
157200.000			-24.700			-4.117
157301.000			-24.700			-4.117
157401.000			-24.700			-4.117
157501.000			-24.700			-4.117
157602.000			-24.699			-4.117
157700.000			-24.698			-4.116
157800.000			-24.699			-4.116
157901.000			-24.700			-4.117
158000.000			-24.698			-4.116
158101.000			-24.697			-4.116
158200.000			-24.697			-4.116
158300.000			-24.697			-4.116
158402.000			-24.696			-4.116
158501.000			-24.696			-4.116
158601.000			-24.696			-4.116
158701.000			-24.696			-4.116
158800.000			-24.695			-4.116
158900.000			-24.695			-4.116
159001.000			-24.694			-4.116
159100.000			-24.695			-4.116
159200.000			-24.694			-4.116
159301.000			-24.694			-4.116
159401.000			-24.695			-4.116
159501.000			-24.694			-4.116
159601.000			-24.694			-4.116
159700.000			-24.693			-4.116
159800.000			-24.693			-4.115
159901.000			-24.692			-4.115
160000.000			-24.692			-4.115
160100.000			-24.691			-4.115
160201.000			-24.691			-4.115
160301.000			-24.691			-4.115
160401.000			-24.690			-4.115
160502.000			-24.691			-4.115
160600.000			-24.690			-4.115
160700.000			-24.690			-4.115
160801.000			-24.690			-4.115
160900.000			-24.690			-4.115
161000.000			-24.689			-4.115
161101.000			-24.689			-4.115
161200.000			-24.687			-4.114
161302.000			-24.687			-4.115
161401.000			-24.688			-4.115
161501.000			-24.687			-4.114
161601.000			-24.687			-4.115
161700.000			-24.688			-4.115
161800.000			-24.687			-4.114
161901.000			-24.686			-4.114
162000.000			-24.686			-4.114
162100.000			-24.686			-4.114
162201.000			-24.685			-4.114
162301.000			-24.685			-4.114
162401.000			-24.685			-4.114
162501.000			-24.685			-4.114
162600.000			-24.685			-4.114
162700.000			-24.683			-4.114
162801.000			-24.683			-4.114
162900.000			-24.683			-4.114
163000.000			-24.682			-4.114
163101.000			-24.683			-4.114
163201.000			-24.683			-4.114
163301.000			-24.682			-4.114
163402.000			-24.682			-4.114
163500.000			-24.681			-4.114
163600.000			-24.681			-4.114
163701.000			-24.682			-4.114
163800.000			-24.681			-4.113
163900.000			-24.681			-4.113
164001.000			-24.680			-4.113
164100.000			-24.680			-4.113
164201.000			-24.680			-4.113
164302.000			-24.679			-4.113
164401.000			-24.679			-4.113
164501.000			-24.678			-4.113
164600.000			-24.679			-4.113
164700.000			-24.679			-4.113
164801.000			-24.678			-4.113
164900.000			-24.679			-4.113
165000.000			-24.678			-4.113
165101.000			-24.677			-4.113
165201.000			-24.677			-4.113
165301.000			-24.676			-4.113
165401.000			-24.677			-4.113
165500.000			-24.676			-4.113
165600.000			-24.676			-4.113
165701.000			-24.676			-4.113
165800.000			-24.675			-4.113
165900.000			-24.675			-4.113
166001.000			-24.674			-4.112
166101.000			-24.674			-4.112
166201.000			-24.674			-4.112
166302.000			-24.673			-4.112
166400.000			-24.673			-4.112
166500.000			-24.674			-4.112
166601.000			-24.673			-4.112
166700.000			-24.673			-4.112
166800.000			-24.672			-4.112
166901.000			-24.672			-4.112
167000.000			-24.671			-4.112
167101.000			-24.671			-4.112
167202.000			-24.672			-4.112
167300.000			-24.671			-4.112
167400.000			-24.670			-4.112
167501.000			-24.670			-4.112
167600.000			-24.670			-4.112
167701.000			-24.669			-4.112
167800.000			-24.669			-4.112
167900.000			-24.669			-4.111
168001.000			-24.669			-4.111
168101.000			-24.669			-4.111
168201.000			-24.669			-4.111
168301.000			-24.668			-4.111
168400.000			-24.668			-4.111
168500.000			-24.667			-4.111
168601.000			-24.666			-4.111
168700.000			-24.667			-4.111
168800.000			-24.668			-4.111
168901.000			-24.667			-4.111
169001.000			-24.666			-4.111
169101.000			-24.667			-4.111
169202.000			-24.666			-4.111
169300.000			-24.666			-4.111
169400.000			-24.665			-4.111
169501.000			-24.664			-4.111
169600.000			-24.663			-4.111
169700.000			-24.664			-4.111
169801.000			-24.665			-4.111
169900.000			-24.664			-4.111
170001.000			-24.664			-4.111
170102.000			-24.663			-4.111
170201.000			-24.663			-4.110
170300.000			-24.662			-4.110
170401.000			-24.662			-4.110
170500.000			-24.662			-4.110
170600.000			-24.662			-4.110
170701.000			-24.662			-4.110
170800.000			-24.661			-4.110
170901.000			-24.661			-4.110
171001.000			-24.661			-4.110
171101.000			-24.661			-4.110
171201.000			-24.661			-4.110
171300.000			-24.660			-4.110
171400.000			-24.661			-4.110
171501.000			-24.659			-4.110
171600.000			-24.660			-4.110
171700.000			-24.659			-4.110
171801.000			-24.659			-4.110
171901.000			-24.659			-4.110
172001.000			-24.659			-4.110
172101.000			-24.658			-4.110
172200.000			-24.657			-4.110
172300.000			-24.656			-4.109
172401.000			-24.657			-4.109
172500.000			-24.656			-4.109
172600.000			-24.656			-4.109
172701.000			-24.657			-4.109
172801.000			-24.656			-4.109
172901.000			-24.657			-4.109
173002.000			-24.656			-4.109
173100.000			-24.654			-4.109
173200.000			-24.654			-4.109
173301.000			-24.655			-4.109
173400.000			-24.655			-4.109
173500.000			-24.654			-4.109
173601.000			-24.653			-4.109
173700.000			-24.654			-4.109
173801.000			-24.653			-4.109
173902.000			-24.653			-4.109
174001.000			-24.653			-4.109
174101.000			-24.652			-4.109
174200.000			-24.652			-4.109
174300.000			-24.652			-4.109
174401.000			-24.652			-4.109
174500.000			-24.651			-4.109
174600.000			-24.652			-4.109
174702.000			-24.651			-4.108
174801.000			-24.650			-4.108
174901.000			-24.650			-4.108
175001.000			-24.651			-4.108
175100.000			-24.649			-4.108
175200.000			-24.649			-4.108
175301.000			-24.650			-4.108
175400.000			-24.650			-4.108
175500.000			-24.649			-4.108
175601.000			-24.649			-4.108
175701.000			-24.648			-4.108
175801.000			-24.648			-4.108
175902.000			-24.648			-4.108
176000.000			-24.647			-4.108
176100.000			-24.647			-4.108
176201.000			-24.646			-4.108
176300.000			-24.647			-4.108
176400.000			-24.646			-4.108
176501.000			-24.646			-4.108
176600.000			-24.646			-4.108
176701.000			-24.646			-4.108
176802.000			-24.646			-4.108
176901.000			-24.645			-4.108
177000.000			-24.645			-4.107
177101.000			-24.644			-4.107
177200.000			-24.645			-4.107
177301.000			-24.644			-4.107
177400.000			-24.644			-4.107
177500.000			-24.645			-4.107
177601.000			-24.645			-4.107
177701.000			-24.644			-4.107
177801.000			-24.644			-4.107
177902.000			-24.643			-4.107
178000.000			-24.641			-4.107
178100.000			-24.642			-4.107
178201.000			-24.641			-4.107
178300.000			-24.641			-4.107
178400.000			-24.642			-4.107
178501.000			-24.642			-4.107
178600.000			-24.642			-4.107
178701.000			-24.641			-4.107
178802.000			-24.641			-4.107
178900.000			-24.641			-4.107
179000.000			-24.640			-4.107
179101.000			-24.640			-4.107
179200.000			-24.640			-4.107
179300.000			-24.638			-4.106
179401.000			-24.638			-4.106
179500.000			-24.638			-4.106
179600.000			-24.638			-4.106
179702.000			-24.639			-4.106
179801.000			-24.638			-4.106
179900.000			-24.637			-4.106
180001.000			-24.638			-4.106
180100.000			-24.637			-4.106
180200.000			-24.637			-4.106
180301.000			-24.637			-4.106
180400.000			-24.637			-4.106
180501.000			-24.637			-4.106
180601.000			-24.636			-4.106
180701.000			-24.635			-4.106
180802.000			-24.636			-4.106
180900.000			-24.636			-4.106
181000.000			-24.635			-4.106
181101.000			-24.635			-4.106
181200.000			-24.634			-4.106
181300.000			-24.633			-4.105
181401.000			-24.633			-4.105
181501.000			-24.633			-4.106
181601.000			-24.633			-4.106
181702.000			-24.633			-4.105
181800.000			-24.632			-4.105
181900.000			-24.632			-4.105
182001.000			-24.632			-4.105
182100.000			-24.632			-4.105
182200.000			-24.632			-4.105
182301.000			-24.631			-4.105
182400.000			-24.631			-4.105
182501.000			-24.630			-4.105
182602.000			-24.631			-4.105
182700.000			-24.631			-4.105
182800.000			-24.630			-4.105
182901.000			-24.630			-4.105
183000.000			-24.630			-4.105
183100.000			-24.629			-4.105
183201.000			-24.630			-4.105
183300.000			-24.628			-4.105
183401.000			-24.628			-4.105
183502.000			-24.629			-4.105
183601.000			-24.629			-4.105
183701.000			-24.628			-4.105
183800.000			-24.628			-4.105
183900.000			-24.628			-4.105
184001.000			-24.628			-4.105
184100.000			-24.628			-4.105
184200.000			-24.627			-4.104
184301.000			-24.626			-4.104
184401.000			-24.625			-4.104
184501.000			-24.626			-4.104
184601.000			-24.626			-4.104
184700.000			-24.626			-4.104
184800.000			-24.626			-4.104
184901.000			-24.626			-4.104
185000.000			-24.625			-4.104
185100.000			-24.624			-4.104
185201.000			-24.624			-4.104
185301.000			-24.624			-4.104
185401.000			-24.624			-4.104
185502.000			-24.623			-4.104
185600.000			-24.623			-4.104
185700.000			-24.624			-4.104
185801.000			-24.623			-4.104
185900.000			-24.622			-4.104
186000.000			-24.622			-4.104
186101.000			-24.622			-4.104
186200.000			-24.622			-4.104
186301.000			-24.622			-4.104
186402.000			-24.621			-4.104
186500.000			-24.621			-4.104
186600.000			-24.620			-4.103
186701.000			-24.620			-4.103
186800.000			-24.620			-4.103
186901.000			-24.621			-4.103
187000.000			-24.620			-4.103
187100.000			-24.619			-4.103
187201.000			-24.619			-4.103
187301.000			-24.619			-4.103
187401.000			-24.619			-4.103
187501.000			-24.619			-4.103
187600.000			-24.620			-4.103
187700.000			-24.619			-4.103
187801.000			-24.618			-4.103
187900.000			-24.617			-4.103
188000.000			-24.617			-4.103
188101.000			-24.617			-4.103
188201.000			-24.617			-4.103
188301.000			-24.616			-4.103
188402.000			-24.616			-4.103
188500.000			-24.617			-4.103
188600.000			-24.618			-4.103
188701.000			-24.616			-4.103
188800.000			-24.616			-4.103
188900.000			-24.615			-4.103
189001.000			-24.616			-4.103
189100.000			-24.615			-4.103
189201.000			-24.614			-4.102
189302.000			-24.613			-4.102
189401.000			-24.613			-4.102
189500.000			-24.613			-4.102
189601.000			-24.613			-4.102
189700.000			-24.613			-4.102
189800.000			-24.614			-4.102
189901.000			-24.613			-4.102
190000.000			-24.613			-4.102
190101.000			-24.612			-4.102
190201.000			-24.612			-4.102
190301.000			-24.611			-4.102
190401.000			-24.610			-4.102
190500.000			-24.611			-4.102
190600.000			-24.612			-4.102
190701.000			-24.612			-4.102
190800.000			-24.611			-4.102
190900.000			-24.610			-4.102
191001.000			-24.611			-4.102
191101.000			-24.610			-4.102
191201.000			-24.610			-4.102
191301.000			-24.609			-4.101
191400.000			-24.608			-4.101
191500.000			-24.609			-4.102
191601.000			-24.610			-4.102
191700.000			-24.608			-4.101
191800.000			-24.608			-4.101
191901.000			-24.608			-4.101
192001.000			-24.608			-4.101
192101.000			-24.608			-4.101
192202.000			-24.608			-4.101
192300.000			-24.607			-4.101
192400.000			-24.607			-4.101
192501.000			-24.607			-4.101
192600.000			-24.607			-4.101
192700.000			-24.605			-4.101
192801.000			-24.605			-4.101
192900.000			-24.605			-4.101
193001.000			-24.605			-4.101
193102.000			-24.606			-4.101
193200.000			-24.606			-4.101
193301.000			-24.605			-4.101
193400.000			-24.604			-4.101
193500.000			-24.604			-4.101
193601.000			-24.604			-4.101
193700.000			-24.604			-4.101
193800.000			-24.604			-4.101
193902.000			-24.602			-4.100
194001.000			-24.602			-4.100
194101.000			-24.602			-4.100
194201.000			-24.602			-4.100
194300.000			-24.602			-4.100
194400.000			-24.602			-4.100
194501.000			-24.601			-4.100
194600.000			-24.602			-4.100
194700.000			-24.601			-4.100
194802.000			-24.601			-4.100
194901.000			-24.601			-4.100
195001.000			-24.600			-4.100
195101.000			-24.600			-4.100
195200.000			-24.599			-4.100
195300.000			-24.600			-4.100
195401.000			-24.599			-4.100
195500.000			-24.599			-4.100
195600.000			-24.598			-4.100
195701.000			-24.598			-4.100
195801.000			-24.598			-4.100
195901.000			-24.598			-4.100
196002.000			-24.598			-4.100
196100.000			-24.598			-4.100
196200.000			-24.598			-4.100
196301.000			-24.597			-4.100
196400.000			-24.597			-4.099
196501.000			-24.596			-4.099
196600.000			-24.596			-4.099
196700.000			-24.596			-4.099
196802.000			-24.596			-4.099
196901.000			-24.596			-4.099
197001.000			-24.595			-4.099
197101.000			-24.595			-4.099
197200.000			-24.595			-4.099
197300.000			-24.595			-4.099
197401.000			-24.595			-4.099
197500.000			-24.593			-4.099
197600.000			-24.592			-4.099
197701.000			-24.594			-4.099
197801.000			-24.594			-4.099
197901.000			-24.593			-4.099
198002.000			-24.593			-4.099
198100.000			-24.593			-4.099
198200.000			-24.593			-4.099
198301.000			-24.592			-4.099
198400.000			-24.592			-4.099
198500.000			-24.592			-4.099
198601.000			-24.591			-4.099
198700.000			-24.591			-4.098
198801.000			-24.591			-4.099
198902.000			-24.590			-4.098
199001.000			-24.590			-4.098
199100.000			-24.591			-4.098
199201.000			-24.591			-4.099
199300.000			-24.591			-4.098
199400.000			-24.590			-4.098
199501.000			-24.588			-4.098
199600.000			-24.589			-4.098
199701.000			-24.589			-4.098
199801.000			-24.589			-4.098
199901.000			-24.589			-4.098
200002.000			-24.588			-4.098
200100.000			-24.589			-4.098
200200.000			-24.588			-4.098
200301.000			-24.588			-4.098
200400.000			-24.588			-4.098
200500.000			-24.588			-4.098
200601.000			-24.587			-4.098
200700.000			-24.587			-4.098
200801.000			-24.587			-4.098
200902.000			-24.586			-4.098
201001.000			-24.585			-4.098
201100.000			-24.586			-4.098
201201.000			-24.586			-4.098
201300.000			-24.586			-4.098
201400.000			-24.586			-4.098
201501.000			-24.585			-4.098
201600.000			-24.585			-4.098
201700.000			-24.584			-4.097
201802.000			-24.584			-4.097
201901.000			-24.585			-4.097
202000.000			-24.584			-4.097
202101.000			-24.584			-4.097
202200.000			-24.582			-4.097
202300.000			-24.583			-4.097
202401.000			-24.583			-4.097
202500.000			-24.582			-4.097
202600.000			-24.582			-4.097
202702.000			-24.582			-4.097
202801.000			-24.581			-4.097
202901.000			-24.581			-4.097
203000.000			-24.581			-4.097
203100.000			-24.581			-4.097
203201.000			-24.581			-4.097
203300.000			-24.581			-4.097
203400.000			-24.580			-4.097
203501.000			-24.580			-4.097
203601.000			-24.580			-4.097
203701.000			-24.580			-4.097
203801.000			-24.579			-4.097
203900.000			-24.579			-4.097
204000.000			-24.580			-4.097
204101.000			-24.578			-4.096
204200.000			-24.579			-4.096
204300.000			-24.579			-4.097
204401.000			-24.579			-4.096
204501.000			-24.578			-4.096
204601.000			-24.579			-4.096
204702.000			-24.577			-4.096
204800.000			-24.578			-4.096
204900.000			-24.577			-4.096
205001.000			-24.576			-4.096
205100.000			-24.576			-4.096
205200.000			-24.577			-4.096
205301.000			-24.576			-4.096
205400.000			-24.575			-4.096
205501.000			-24.575			-4.096
205602.000			-24.576			-4.096
205700.000			-24.576			-4.096
205800.000			-24.575			-4.096
205901.000			-24.575			-4.096
206000.000			-24.575			-4.096
206101.000			-24.574			-4.096
206200.000			-24.574			-4.096
206300.000			-24.574			-4.096
206402.000			-24.574			-4.096
206501.000			-24.572			-4.095
206600.000			-24.573			-4.095
206701.000			-24.574			-4.096
206800.000			-24.573			-4.096
206900.000			-24.573			-4.095
207001.000			-24.572			-4.095
207100.000			-24.571			-4.095
207200.000			-24.571			-4.095
207302.000			-24.571			-4.095
207401.000			-24.571			-4.095
207501.000			-24.572			-4.095
207601.000			-24.571			-4.095
207700.000			-24.570			-4.095
207800.000			-24.570			-4.095
207901.000			-24.570			-4.095
208000.000			-24.569			-4.095
208100.000			-24.570			-4.095
208201.000			-24.570			-4.095
208301.000			-24.569			-4.095
208401.000			-24.569			-4.095
208501.000			-24.568			-4.095
208600.000			-24.569			-4.095
208700.000			-24.569			-4.095
208801.000			-24.568			-4.095
208900.000			-24.568			-4.095
209000.000			-24.568			-4.095
209101.000			-24.568			-4.095
209201.000			-24.568			-4.095
209302.000			-24.567			-4.094
209401.000			-24.567			-4.094
209500.000			-24.567			-4.095
209601.000			-24.567			-4.094
209700.000			-24.566			-4.094
209800.000			-24.565			-4.094
209901.000			-24.565			-4.094
210000.000			-24.565			-4.094
210100.000			-24.566			-4.094
210202.000			-24.565			-4.094
210301.000			-24.564			-4.094
210401.000			-24.565			-4.094
210501.000			-24.565			-4.094
210600.000			-24.565			-4.094
210700.000			-24.565			-4.094
210801.000			-24.565			-4.094
210900.000			-24.565			-4.094
211000.000			-24.565			-4.094
211102.000			-24.564			-4.094
211201.000			-24.564			-4.094
211301.000			-24.563			-4.094
211401.000			-24.562			-4.094
211500.000			-24.561			-4.093
211600.000			-24.561			-4.094
211701.000			-24.561			-4.094
211800.000			-24.561			-4.094
211900.000			-24.561			-4.093
212002.000			-24.560			-4.093
212101.000			-24.561			-4.093
212201.000			-24.561			-4.094
212301.000			-24.562			-4.094
212400.000			-24.562			-4.094
212501.000			-24.560			-4.093
212600.000			-24.559			-4.093
212700.000			-24.560			-4.093
212801.000			-24.559			-4.093
212901.000			-24.559			-4.093
213001.000			-24.558			-4.093
213102.000			-24.559			-4.093
213200.000			-24.560			-4.093
213300.000			-24.558			-4.093
213401.000			-24.558			-4.093
213500.000			-24.557			-4.093
213600.000			-24.557			-4.093
213701.000			-24.557			-4.093
213800.000			-24.558			-4.093
213901.000			-24.558			-4.093
214002.000			-24.556			-4.093
214100.000			-24.556			-4.093
214200.000			-24.556			-4.093
214301.000			-24.556			-4.093
214400.000			-24.555			-4.093
214500.000			-24.555			-4.092
214601.000			-24.555			-4.093
214700.000			-24.555			-4.093
214801.000			-24.556			-4.093
214902.000			-24.555			-4.092
215001.000			-24.553			-4.092
215100.000			-24.553			-4.092
215201.000			-24.554			-4.092
215300.000			-24.553			-4.092
215400.000			-24.553			-4.092
215501.000			-24.553			-4.092
215600.000			-24.552			-4.092
215702.000			-24.553			-4.092
215801.000			-24.553			-4.092
215901.000			-24.553			-4.092
216001.000			-24.553			-4.092
216100.000			-24.552			-4.092
216200.000			-24.551			-4.092
216301.000			-24.552			-4.092
216400.000			-24.551			-4.092
216500.000			-24.551			-4.092
216602.000			-24.550			-4.092
216701.000			-24.550			-4.092
216801.000			-24.551			-4.092
216901.000			-24.550			-4.092
217000.000			-24.550			-4.092
217100.000			-24.549			-4.092
217201.000			-24.549			-4.092
217300.000			-24.550			-4.092
217400.000			-24.550			-4.092
217501.000			-24.549			-4.091
217601.000			-24.549			-4.092
217701.000			-24.549			-4.092
217801.000			-24.548			-4.091
217900.000			-24.548			-4.091
218000.000			-24.547			-4.091
218101.000			-24.547			-4.091
218200.000			-24.547			-4.091
218300.000			-24.547			-4.091
218401.000			-24.547			-4.091
218501.000			-24.547			-4.091
218601.000			-24.547			-4.091
218701.000			-24.547			-4.091
218800.000			-24.547			-4.091
218901.000			-24.546			-4.091
219000.000			-24.547			-4.091
219100.000			-24.545			-4.091
219201.000			-24.545			-4.091
219300.000			-24.544			-4.091
219400.000			-24.545			-4.091
219502.000			-24.545			-4.091
219601.000			-24.545			-4.091
219700.000			-24.546			-4.091
219801.000			-24.544			-4.091
219900.000			-24.543			-4.091
220000.000			-24.543			-4.091
220101.000			-24.543			-4.090
220200.000			-24.543			-4.090
220300.000			-24.543			-4.091
220402.000			-24.544			-4.091
220501.000			-24.542			-4.090
220600.000			-24.542			-4.090
220701.000			-24.542			-4.090
220800.000			-24.543			-4.090
220900.000			-24.543			-4.090
221001.000			-24.541			-4.090
221100.000			-24.542			-4.090
221200.000			-24.541			-4.090
221302.000			-24.541			-4.090
221401.000			-24.540			-4.090
221500.000			-24.541			-4.090
221601.000			-24.540			-4.090
221700.000			-24.540			-4.090
221800.000			-24.541			-4.090
221901.000			-24.541			-4.090
222000.000			-24.539			-4.090
222101.000			-24.540			-4.090
222201.000			-24.540			-4.090
222301.000			-24.539			-4.090
222401.000			-24.540			-4.090
222500.000			-24.540			-4.090
222600.000			-24.538			-4.090
222701.000			-24.538			-4.090
222800.000			-24.537			-4.090
222900.000			-24.537			-4.089
223001.000			-24.537			-4.089
223101.000			-24.537			-4.090
223201.000			-24.537			-4.089
223301.000			-24.536			-4.089
223400.000			-24.537			-4.090
223500.000			-24.536			-4.089
223601.000			-24.535			-4.089
223700.000			-24.536			-4.089
223800.000			-24.536			-4.089
223901.000			-24.536			-4.089
224001.000			-24.535			-4.089
224101.000			-24.535			-4.089
224202.000			-24.534			-4.089
224300.000			-24.534			-4.089
224400.000			-24.534			-4.089
224501.000			-24.533			-4.089
224600.000			-24.534			-4.089
224700.000			-24.533			-4.089
224801.000			-24.533			-4.089
224901.000			-24.533			-4.089
225001.000			-24.533			-4.089
225102.000			-24.533			-4.089
225200.000			-24.533			-4.089
225301.000			-24.534			-4.089
225400.000			-24.532			-4.089
225500.000			-24.531			-4.088
225601.000			-24.532			-4.089
225700.000			-24.533			-4.089
225800.000			-24.532			-4.089
225902.000			-24.531			-4.088
226001.000			-24.531			-4.089
226100.000			-24.531			-4.088
226201.000			-24.530			-4.088
226300.000			-24.530			-4.088
226400.000			-24.530			-4.088
226501.000			-24.530			-4.088
226600.000			-24.530			-4.088
226700.000			-24.530			-4.088
226802.000			-24.530			-4.088
226901.000			-24.529			-4.088
227000.000			-24.529			-4.088
227101.000			-24.529			-4.088
227200.000			-24.528			-4.088
227300.000			-24.529			-4.088
227401.000			-24.529			-4.088
227500.000			-24.529			-4.088
227600.000			-24.527			-4.088
227702.000			-24.527			-4.088
227801.000			-24.527			-4.088
227901.000			-24.527			-4.088
228001.000			-24.527			-4.088
228100.000			-24.527			-4.088
228200.000			-24.526			-4.088
228301.000			-24.526			-4.088
228400.000			-24.527			-4.088
228501.000			-24.526			-4.088
228600.000			-24.526			-4.088
228701.000			-24.526			-4.088
228802.000			-24.526			-4.088
228900.000			-24.526			-4.088
229000.000			-24.525			-4.088
229101.000			-24.525			-4.087
229200.000			-24.524			-4.087
229300.000			-24.525			-4.087
229401.000			-24.525			-4.087
229500.000			-24.523			-4.087
229601.000			-24.524			-4.087
229702.000			-24.524			-4.087
229801.000			-24.524			-4.087
229900.000			-24.523			-4.087
230001.000			-24.524			-4.087
230100.000			-24.523			-4.087
230200.000			-24.522			-4.087
230301.000			-24.522			-4.087
230400.000			-24.520			-4.087
230501.000			-24.521			-4.087
230602.000			-24.522			-4.087
230701.000			-24.521			-4.087
230800.000			-24.522			-4.087
230901.000			-24.521			-4.087
231000.000			-24.521			-4.087
231100.000			-24.520			-4.087
231201.000			-24.519			-4.087
231300.000			-24.520			-4.087
231401.000			-24.520			-4.087
231502.000			-24.520			-4.087
231601.000			-24.519			-4.087
231701.000			-24.519			-4.086
231800.000			-24.519			-4.086
231900.000			-24.519			-4.086
232001.000			-24.518			-4.086
232100.000			-24.518			-4.086
232200.000			-24.518			-4.086
232301.000			-24.518			-4.086
232401.000			-24.518			-4.086
232501.000			-24.518			-4.086
232601.000			-24.518			-4.086
232700.000			-24.517			-4.086
232800.000			-24.517			-4.086
232901.000			-24.517			-4.086
233000.000			-24.517			-4.086
233100.000			-24.517			-4.086
233201.000			-24.516			-4.086
233301.000			-24.515			-4.086
233401.000			-24.515			-4.086
233501.000			-24.514			-4.086
233600.000			-24.515			-4.086
233700.000			-24.516			-4.086
233801.000			-24.516			-4.086
233900.000			-24.515			-4.086
234000.000			-24.516			-4.086
234101.000			-24.515			-4.086
234201.000			-24.514			-4.086
234301.000			-24.515			-4.086
234401.000			-24.515			-4.086
234500.000			-24.515			-4.086
234600.000			-24.514			-4.086
234701.000			-24.513			-4.086
234800.000			-24.513			-4.086
234901.000			-24.513			-4.086
235000.000			-24.513			-4.086
235101.000			-24.513			-4.086
235202.000			-24.513			-4.085
235301.000			-24.512			-4.085
235400.000			-24.512			-4.085
235501.000			-24.511			-4.085
235600.000			-24.511			-4.085
235700.000			-24.511			-4.085
235801.000			-24.512			-4.085
235900.000			-24.511			-4.085
236001.000			-24.511			-4.085
236102.000			-24.510			-4.085
236201.000			-24.510			-4.085
236300.000			-24.510			-4.085
236401.000			-24.510			-4.085
236500.000			-24.510			-4.085
236600.000			-24.510			-4.085
236701.000			-24.509			-4.085
236800.000			-24.509			-4.085
236901.000			-24.509			-4.085
237002.000			-24.508			-4.085
237101.000			-24.509			-4.085
237200.000			-24.508			-4.085
237301.000			-24.507			-4.085
237400.000			-24.506			-4.084
237500.000			-24.507			-4.084
237601.000			-24.508			-4.085
237700.000			-24.507			-4.085
237800.000			-24.508			-4.085
237902.000			-24.507			-4.084
238001.000			-24.506			-4.084
238101.000			-24.506			-4.084
238200.000			-24.506			-4.084
238300.000			-24.506			-4.084
238401.000			-24.505			-4.084
238500.000			-24.505			-4.084
238600.000			-24.505			-4.084
238701.000			-24.506			-4.084
238801.000			-24.506			-4.084
238901.000			-24.505			-4.084
239001.000			-24.505			-4.084
239100.000			-24.504			-4.084
239200.000			-24.503			-4.084
239301.000			-24.502			-4.084
239400.000			-24.504			-4.084
239500.000			-24.503			-4.084
239601.000			-24.503			-4.084
239701.000			-24.503			-4.084
239801.000			-24.502			-4.084
239902.000			-24.502			-4.084
240000.000			-24.503			-4.084
240100.000			-24.501			-4.084
240201.000			-24.502			-4.084
240300.000			-24.502			-4.084
240400.000			-24.501			-4.084
240501.000			-24.501			-4.084
240601.000			-24.500			-4.083
240701.000			-24.500			-4.083
240801.000			-24.501			-4.083
240900.000			-24.501			-4.084
241000.000			-24.500			-4.083
241101.000			-24.501			-4.083
241200.000			-24.500			-4.083
241301.000			-24.499			-4.083
241400.000			-24.499			-4.083
241501.000			-24.500			-4.083
241602.000			-24.499			-4.083
241701.000			-24.497			-4.083
241800.000			-24.498			-4.083
241901.000			-24.498			-4.083
242000.000			-24.497			-4.083
242100.000			-24.498			-4.083
242201.000			-24.498			-4.083
242300.000			-24.497			-4.083
242400.000			-24.498			-4.083
242502.000			-24.498			-4.083
242601.000			-24.498			-4.083
242700.000			-24.497			-4.083
242801.000			-24.497			-4.083
242900.000			-24.497			-4.083
243000.000			-24.496			-4.083
243101.000			-24.495			-4.083
243200.000			-24.495			-4.083
243300.000			-24.496			-4.083
243402.000			-24.495			-4.083
243501.000			-24.495			-4.082
243601.000			-24.495			-4.083
243701.000			-24.494			-4.082
243800.000			-24.495			-4.082
243900.000			-24.495			-4.082
244001.000			-24.494			-4.082
244100.000			-24.494			-4.082
244200.000			-24.494			-4.082
244301.000			-24.494			-4.082
244401.000			-24.493			-4.082
244502.000			-24.494			-4.082
244600.000			-24.493			-4.082
244700.000			-24.493			-4.082
244801.000			-24.493			-4.082
244900.000			-24.494			-4.082
245000.000			-24.493			-4.082
245101.000			-24.491			-4.082
245200.000			-24.491			-4.082
245301.000			-24.492			-4.082
245402.000			-24.491			-4.082
245501.000			-24.491			-4.082
245600.000			-24.490			-4.082
245701.000			-24.490			-4.082
245800.000			-24.491			-4.082
245900.000			-24.489			-4.082
246001.000			-24.490			-4.082
246100.000			-24.490			-4.082
246200.000			-24.489			-4.082
246302.000			-24.490			-4.082
246401.000			-24.490			-4.082
246500.000			-24.490			-4.082
246601.000			-24.489			-4.082
246700.000			-24.489			-4.081
246800.000			-24.488			-4.081
246901.000			-24.488			-4.081
247000.000			-24.488			-4.081
247100.000			-24.488			-4.081
247202.000			-24.489			-4.082
247301.000			-24.488			-4.081
247401.000			-24.488			-4.081
247501.000			-24.488			-4.081
247600.000			-24.487			-4.081
247701.000			-24.487			-4.081
247800.000			-24.486			-4.081
247900.000			-24.487			-4.081
248001.000			-24.488			-4.081
248100.000			-24.486			-4.081
248201.000			-24.487			-4.081
248302.000			-24.487			-4.081
248401.000			-24.486			-4.081
248500.000			-24.485			-4.081
248601.000			-24.485			-4.081
248700.000			-24.487			-4.081
248800.000			-24.484			-4.081
248901.000			-24.484			-4.081
249000.000			-24.485			-4.081
249100.000			-24.484			-4.081
249202.000			-24.484			-4.081
249301.000			-24.485			-4.081
249401.000			-24.485			-4.081
249501.000			-24.483			-4.081
249600.000			-24.483			-4.080
249700.000			-24.483			-4.081
249801.000			-24.483			-4.081
249900.000			-24.483			-4.080
250000.000			-24.482			-4.080
250101.000			-24.482			-4.080
250201.000			-24.483			-4.081
250301.000			-24.483			-4.080
250401.000			-24.483			-4.080
250500.000			-24.482			-4.080
250600.000			-24.481			-4.080
250701.000			-24.482			-4.080
250800.000			-24.482			-4.080
250901.000			-24.481			-4.080
251000.000			-24.480			-4.080
251101.000			-24.480			-4.080
251202.000			-24.481			-4.080
251301.000			-24.481			-4.080
251400.000			-24.480			-4.080
251501.000			-24.480			-4.080
251600.000			-24.480			-4.080
251700.000			-24.479			-4.080
251801.000			-24.479			-4.080
251900.000			-24.479			-4.080
252000.000			-24.479			-4.080
252102.000			-24.479			-4.080
252201.000			-24.479			-4.080
252300.000			-24.478			-4.080
252401.000			-24.478			-4.080
252500.000			-24.477			-4.080
252600.000			-24.478			-4.080
252701.000			-24.478			-4.080
252800.000			-24.477			-4.079
252900.000			-24.478			-4.080
253002.000			-24.477			-4.080
253101.000			-24.477			-4.080
253201.000			-24.477			-4.080
253301.000			-24.477			-4.079
253400.000			-24.476			-4.079
253500.000			-24.477			-4.079
253601.000			-24.477			-4.079
253700.000			-24.476			-4.079
253800.000			-24.475			-4.079
253901.000			-24.476			-4.079
254001.000			-24.476			-4.079
254102.000			-24.475			-4.079
254201.000			-24.474			-4.079
254300.000			-24.474			-4.079
254401.000			-24.474			-4.079
254500.000			-24.475			-4.079
254600.000			-24.475			-4.079
254701.000			-24.474			-4.079
254800.000			-24.474			-4.079
254900.000			-24.474			-4.079
255002.000			-24.474			-4.079
255101.000			-24.474			-4.079
255200.000			-24.474			-4.079
255301.000			-24.472			-4.079
255400.000			-24.472			-4.079
255500.000			-24.472			-4.079
255601.000			-24.472			-4.079
255700.000			-24.473			-4.079
255800.000			-24.473			-4.079
255902.000			-24.472			-4.079
256001.000			-24.472			-4.079
256100.000			-24.471			-4.079
256201.000			-24.471			-4.079
256300.000			-24.472			-4.079
256400.000			-24.472			-4.079
256501.000			-24.472			-4.079
256600.000			-24.472			-4.079
256700.000			-24.470			-4.078
256802.000			-24.470			-4.078
256901.000			-24.471			-4.078
257000.000			-24.470			-4.078
257101.000			-24.470			-4.078
257200.000			-24.470			-4.078
257301.000			-24.470			-4.078
257400.000			-24.469			-4.078
257500.000			-24.469			-4.078
257601.000			-24.469			-4.078
257700.000			-24.469			-4.078
257801.000			-24.468			-4.078
257902.000			-24.467			-4.078
258000.000			-24.468			-4.078
258100.000			-24.469			-4.078
258201.000			-24.468			-4.078
258300.000			-24.468			-4.078
258400.000			-24.468			-4.078
258501.000			-24.468			-4.078
258600.000			-24.467			-4.078
258701.000			-24.467			-4.078
258802.000			-24.467			-4.078
258901.000			-24.465			-4.078
259000.000			-24.466			-4.078
259101.000			-24.466			-4.078
259200.000			-24.466			-4.078
259300.000			-24.466			-4.078
259401.000			-24.466			-4.078
259500.000			-24.466			-4.078
259600.000			-24.465			-4.078
259702.000			-24.465			-4.078
259801.000			-24.465			-4.078
259901.000			-24.465			-4.078
260001.000			-24.465			-4.078
260100.000			-24.466			-4.078
260200.000			-24.466			-4.078
260301.000			-24.465			-4.078
260400.000			-24.465			-4.077
260501.000			-24.465			-4.077
260600.000			-24.463			-4.077
260701.000			-24.463			-4.077
260802.000			-24.464			-4.077
260900.000			-24.464			-4.077
261000.000			-24.463			-4.077
261101.000			-24.463			-4.077
261200.000			-24.463			-4.077
261300.000			-24.463			-4.077
261401.000			-24.463			-4.077
261500.000			-24.462			-4.077
261601.000			-24.462			-4.077
261702.000			-24.461			-4.077
261800.000			-24.461			-4.077
261900.000			-24.461			-4.077
262001.000			-24.461			-4.077
262100.000			-24.461			-4.077
262200.000			-24.461			-4.077
262301.000			-24.461			-4.077
262400.000			-24.461			-4.077
262501.000			-24.461			-4.077
262602.000			-24.461			-4.077
262701.000			-24.461			-4.077
262800.000			-24.460			-4.077
262901.000			-24.460			-4.077
263000.000			-24.461			-4.077
263100.000			-24.460			-4.077
263201.000			-24.459			-4.077
263300.000			-24.460			-4.077
263400.000			-24.459			-4.077
263502.000			-24.460			-4.077
263601.000			-24.458			-4.076
263701.000			-24.459			-4.076
263800.000			-24.458			-4.076
263900.000			-24.457			-4.076
264001.000			-24.458			-4.076
264100.000			-24.457			-4.076
264200.000			-24.458			-4.076
264301.000			-24.458			-4.076
264401.000			-24.457			-4.076
264501.000			-24.457			-4.076
264601.000			-24.457			-4.076
264700.000			-24.456			-4.076
264800.000			-24.456			-4.076
264901.000			-24.456			-4.076
265000.000			-24.455			-4.076
265100.000			-24.455			-4.076
265201.000			-24.455			-4.076
265301.000			-24.456			-4.076
265401.000			-24.455			-4.076
265502.000			-24.455			-4.076
265600.000			-24.455			-4.076
265700.000			-24.455			-4.076
265801.000			-24.455			-4.076
265900.000			-24.455			-4.076
266000.000			-24.454			-4.076
266101.000			-24.453			-4.076
266200.000			-24.454			-4.076
266301.000			-24.453			-4.076
266402.000			-24.453			-4.076
266500.000			-24.453			-4.076
266600.000			-24.454			-4.076
266701.000			-24.454			-4.076
266800.000			-24.454			-4.076
266901.000			-24.453			-4.076
267000.000			-24.452			-4.075
267100.000			-24.451			-4.075
267202.000			-24.451			-4.075
267301.000			-24.451			-4.075
267401.000			-24.452			-4.075
267501.000			-24.452			-4.075
267600.000			-24.452			-4.075
267700.000			-24.451			-4.075
267801.000			-24.451			-4.075
267900.000			-24.449			-4.075
268000.000			-24.450			-4.075
268101.000			-24.451			-4.075
268201.000			-24.452			-4.075
268301.000			-24.449			-4.075
268401.000			-24.450			-4.075
268500.000			-24.450			-4.075
268600.000			-24.449			-4.075
268701.000			-24.449			-4.075
268800.000			-24.450			-4.075
268900.000			-24.449			-4.075
269001.000			-24.449			-4.075
269100.000			-24.449			-4.075
269201.000			-24.449			-4.075
269302.000			-24.448			-4.075
269400.000			-24.449			-4.075
269500.000			-24.448			-4.075
269601.000			-24.448			-4.075
269700.000			-24.448			-4.075
269800.000			-24.447			-4.074
269901.000			-24.447			-4.075
270000.000			-24.448			-4.075
270102.000			-24.447			-4.074
270201.000			-24.447			-4.075
270301.000			-24.448			-4.075
270401.000			-24.447			-4.074
270500.000			-24.446			-4.074
270600.000			-24.446			-4.074
270701.000			-24.446			-4.074
270800.000			-24.446			-4.074
270900.000			-24.445			-4.074
271001.000			-24.445			-4.074
271101.000			-24.445			-4.074
271201.000			-24.445			-4.074
271301.000			-24.445			-4.074
271400.000			-24.444			-4.074
271500.000			-24.443			-4.074
271601.000			-24.443			-4.074
271700.000			-24.443			-4.074
271800.000			-24.443			-4.074
271901.000			-24.445			-4.074
272001.000			-24.445			-4.074
272101.000			-24.444			-4.074
272201.000			-24.443			-4.074
272300.000			-24.442			-4.074
272400.000			-24.442			-4.074
272501.000			-24.442			-4.074
272600.000			-24.443			-4.074
272700.000			-24.442			-4.074
272801.000			-24.441			-4.074
272901.000			-24.441			-4.073
273001.000			-24.441			-4.074
273101.000			-24.442			-4.074
273200.000			-24.441			-4.073
273301.000			-24.441			-4.073
273400.000			-24.440			-4.073
273500.000			-24.441			-4.073
273601.000			-24.440			-4.073
273700.000			-24.440			-4.073
273801.000			-24.441			-4.074
273902.000			-24.441			-4.073
274001.000			-24.441			-4.073
274100.000			-24.439			-4.073
274201.000			-24.440			-4.073
274300.000			-24.440			-4.073
274400.000			-24.440			-4.073
274501.000			-24.439			-4.073
274600.000			-24.438			-4.073
274700.000			-24.439			-4.073
274802.000			-24.439			-4.073
274901.000			-24.438			-4.073
275000.000			-24.439			-4.073
275101.000			-24.439			-4.073
275200.000			-24.438			-4.073
275300.000			-24.437			-4.073
275401.000			-24.437			-4.073
275500.000			-24.437			-4.073
275600.000			-24.437			-4.073
275702.000			-24.437			-4.073
275801.000			-24.437			-4.073
275901.000			-24.437			-4.073
276001.000			-24.436			-4.073
276100.000			-24.435			-4.073
276200.000			-24.436			-4.073
276301.000			-24.436			-4.073
276400.000			-24.435			-4.073
276501.000			-24.435			-4.073
276600.000			-24.435			-4.072
276701.000			-24.434			-4.072
276802.000			-24.434			-4.072
276900.000			-24.434			-4.072
277000.000			-24.435			-4.072
277101.000			-24.435			-4.072
277200.000			-24.433			-4.072
277300.000			-24.433			-4.072
277401.000			-24.433			-4.072
277500.000			-24.433			-4.072
277601.000			-24.434			-4.072
277702.000			-24.432			-4.072
277801.000			-24.433			-4.072
277900.000			-24.433			-4.072
278001.000			-24.433			-4.072
278100.000			-24.432			-4.072
278200.000			-24.431			-4.072
278301.000			-24.431			-4.072
278400.000			-24.430			-4.072
278501.000			-24.432			-4.072
278602.000			-24.432			-4.072
278701.000			-24.432			-4.072
278800.000			-24.432			-4.072
278901.000			-24.431			-4.072
279000.000			-24.431			-4.072
279100.000			-24.430			-4.072
279201.000			-24.430			-4.072
279300.000			-24.431			-4.072
279400.000			-24.429			-4.072
279502.000			-24.429			-4.072
279601.000			-24.428			-4.071
279701.000			-24.428			-4.071
279800.000			-24.429			-4.071
279900.000			-24.429			-4.072
280001.000			-24.428			-4.071
280100.000			-24.429			-4.072
280200.000			-24.430			-4.072
280301.000			-24.429			-4.071
280401.000			-24.428			-4.071
280501.000			-24.427			-4.071
280602.000			-24.428			-4.071
280700.000			-24.427			-4.071
280800.000			-24.426			-4.071
280901.000			-24.427			-4.071
281000.000			-24.427			-4.071
281100.000			-24.427			-4.071
281201.000			-24.426			-4.071
281301.000			-24.427			-4.071
281401.000			-24.426			-4.071
281502.000			-24.425			-4.071
281600.000			-24.427			-4.071
281700.000			-24.427			-4.071
281801.000			-24.425			-4.071
281900.000			-24.424			-4.071
282000.000			-24.425			-4.071
282101.000			-24.425			-4.071
282200.000			-24.425			-4.071
282301.000			-24.425			-4.071
282402.000			-24.425			-4.071
282500.000			-24.424			-4.071
282600.000			-24.423			-4.071
282701.000			-24.423			-4.071
282800.000			-24.424			-4.071
282901.000			-24.424			-4.071
283000.000			-24.424			-4.071
283100.000			-24.424			-4.071
283202.000			-24.424			-4.071
283301.000			-24.423			-4.071
283400.000			-24.423			-4.070
283501.000			-24.424			-4.071
283600.000			-24.424			-4.071
283700.000			-24.424			-4.071
283801.000			-24.423			-4.071
283900.000			-24.422			-4.070
284000.000			-24.422			-4.070
284102.000			-24.422			-4.070
284201.000			-24.422			-4.070
284301.000			-24.421			-4.070
284401.000			-24.421			-4.070
284500.000			-24.421			-4.070
284600.000			-24.421			-4.070
284701.000			-24.420			-4.070
284800.000			-24.419			-4.070
284900.000			-24.420			-4.070
285002.000			-24.420			-4.070
285101.000			-24.420			-4.070
285201.000			-24.421			-4.070
285301.000			-24.420			-4.070
285400.000			-24.420			-4.070
285500.000			-24.419			-4.070
285601.000			-24.419			-4.070
285700.000			-24.420			-4.070
285800.000			-24.420			-4.070
285901.000			-24.419			-4.070
286001.000			-24.419			-4.070
286102.000			-24.419			-4.070
286200.000			-24.418			-4.070
286300.000			-24.418			-4.070
286401.000			-24.417			-4.069
286500.000			-24.417			-4.069
286600.000			-24.417			-4.070
286701.000			-24.418			-4.070
286800.000			-24.418			-4.070
286901.000			-24.417			-4.069
287002.000			-24.417			-4.069
287101.000			-24.416			-4.069
287200.000			-24.416			-4.069
287301.000			-24.416			-4.069
287400.000			-24.416			-4.069
287500.000			-24.416			-4.069
287601.000			-24.415			-4.069
287700.000			-24.415			-4.069
287800.000			-24.415			-4.069
287902.000			-24.416			-4.069
288001.000			-24.415			-4.069
288100.000			-24.414			-4.069
288201.000			-24.414			-4.069
288300.000			-24.414			-4.069
288400.000			-24.414			-4.069
288501.000			-24.414			-4.069
288600.000			-24.413			-4.069
288700.000			-24.413			-4.069
288802.000			-24.413			-4.069
288901.000			-24.413			-4.069
289000.000			-24.413			-4.069
289101.000			-24.412			-4.069
289200.000			-24.412			-4.069
289301.000			-24.413			-4.069
289400.000			-24.413			-4.069
289500.000			-24.413			-4.069
289601.000			-24.412			-4.069
289701.000			-24.412			-4.069
289801.000			-24.411			-4.068
289902.000			-24.410			-4.068
290000.000			-24.412			-4.069
290100.000			-24.411			-4.069
290201.000			-24.412			-4.069
290300.000			-24.413			-4.069
290400.000			-24.411			-4.069
290501.000			-24.411			-4.068
290601.000			-24.410			-4.068
290701.000			-24.409			-4.068
290802.000			-24.410			-4.068
290900.000			-24.410			-4.068
291000.000			-24.409			-4.068
291101.000			-24.409			-4.068
291200.000			-24.409			-4.068
291300.000			-24.409			-4.068
291401.000			-24.409			-4.068
291500.000			-24.408			-4.068
291601.000			-24.408			-4.068
291702.000			-24.408			-4.068
291800.000			-24.408			-4.068
291900.000			-24.409			-4.068
292001.000			-24.408			-4.068
292100.000			-24.408			-4.068
292200.000			-24.408			-4.068
292301.000			-24.409			-4.068
292400.000			-24.408			-4.068
292502.000			-24.407			-4.068
292601.000			-24.407			-4.068
292701.000			-24.407			-4.068
292801.000			-24.406			-4.068
292900.000			-24.407			-4.068
293000.000			-24.407			-4.068
293101.000			-24.407			-4.068
293200.000			-24.408			-4.068
293300.000			-24.407			-4.068
293402.000			-24.406			-4.068
293501.000			-24.406			-4.068
293601.000			-24.406			-4.068
293701.000			-24.406			-4.068
293800.000			-24.406			-4.068
293900.000			-24.406			-4.068
294001.000			-24.407			-4.068
294100.000			-24.406			-4.068
294200.000			-24.405			-4.067
294302.000			-24.405			-4.067
294401.000			-24.404			-4.067
294501.000			-24.405			-4.067
294601.000			-24.404			-4.067
294700.000			-24.404			-4.067
294800.000			-24.405			-4.067
294901.000			-24.404			-4.067
295000.000			-24.403			-4.067
295100.000			-24.404			-4.067
295201.000			-24.403			-4.067
295301.000			-24.403			-4.067
295401.000			-24.403			-4.067
295501.000			-24.404			-4.067
295600.000			-24.403			-4.067
295701.000			-24.403			-4.067
295800.000			-24.403			-4.067
295900.000			-24.403			-4.067
296001.000			-24.403			-4.067
296100.000			-24.401			-4.067
296201.000			-24.402			-4.067
296302.000			-24.402			-4.067
296401.000			-24.402			-4.067
296500.000			-24.402			-4.067
296601.000			-24.401			-4.067
296700.000			-24.400			-4.067
296800.000			-24.401			-4.067
296901.000			-24.401			-4.067
297000.000			-24.400			-4.067
297100.000			-24.401			-4.067
297202.000			-24.400			-4.067
297301.000			-24.401			-4.067
297400.000			-24.401			-4.067
297501.000			-24.401			-4.067
297600.000			-24.400			-4.067
297700.000			-24.399			-4.067
297801.000			-24.399			-4.067
297900.000			-24.399			-4.066
298000.000			-24.399			-4.066
298102.000			-24.399			-4.066
298201.000			-24.399			-4.066
298301.000			-24.399			-4.066
298401.000			-24.398			-4.066
298500.000			-24.398			-4.066
298600.000			-24.398			-4.066
298701.000			-24.399			-4.066
298800.000			-24.398			-4.066
298901.000			-24.398			-4.066
299000.000			-24.398			-4.066
299101.000			-24.398			-4.066
299202.000			-24.397			-4.066
299301.000			-24.398			-4.066
299400.000			-24.397			-4.066
299501.000			-24.396			-4.066
299600.000			-24.395			-4.066
299700.000			-24.397			-4.066
299801.000			-24.397			-4.066
299900.000			-24.396			-4.066
