# Acquired on 10/01/2024 15:40:40 
# SPIDER: Creep_7mm_07714532C-2
# CREEP MEASUREMENT

# time [ms]		force [N]		stiffness [N/mm]
0.000			-16.838			-2.405
100.000			-18.902			-2.700
201.000			-19.092			-2.727
300.000			-19.028			-2.718
400.000			-18.947			-2.707
502.000			-18.885			-2.698
601.000			-18.834			-2.691
700.000			-18.790			-2.684
801.000			-18.750			-2.679
900.000			-18.682			-2.669
1000.000			-18.653			-2.665
1101.000			-18.626			-2.661
1201.000			-18.601			-2.657
1301.000			-18.578			-2.654
1401.000			-18.557			-2.651
1500.000			-18.536			-2.648
1600.000			-18.498			-2.643
1701.000			-18.480			-2.640
1800.000			-18.464			-2.638
1900.000			-18.448			-2.635
2002.000			-18.433			-2.633
2101.000			-18.419			-2.631
2201.000			-18.405			-2.629
2300.000			-18.378			-2.625
2400.000			-18.366			-2.624
2501.000			-18.354			-2.622
2600.000			-18.341			-2.620
2700.000			-18.331			-2.619
2802.000			-18.319			-2.617
2901.000			-18.308			-2.615
3000.000			-18.287			-2.612
3101.000			-18.278			-2.611
3200.000			-18.268			-2.610
3300.000			-18.259			-2.608
3401.000			-18.249			-2.607
3500.000			-18.240			-2.606
3601.000			-18.231			-2.604
3701.000			-18.222			-2.603
3800.000			-18.207			-2.601
3900.000			-18.199			-2.600
4001.000			-18.191			-2.599
4100.000			-18.183			-2.598
4200.000			-18.177			-2.597
4302.000			-18.169			-2.596
4401.000			-18.161			-2.594
4500.000			-18.147			-2.592
4601.000			-18.141			-2.592
4700.000			-18.135			-2.591
4800.000			-18.127			-2.590
4901.000			-18.121			-2.589
5000.000			-18.115			-2.588
5101.000			-18.109			-2.587
5201.000			-18.096			-2.585
5300.000			-18.089			-2.584
5401.000			-18.084			-2.583
5500.000			-18.080			-2.583
5600.000			-18.074			-2.582
5701.000			-18.068			-2.581
5801.000			-18.062			-2.580
5901.000			-18.052			-2.579
6001.000			-18.047			-2.578
6100.000			-18.042			-2.577
6200.000			-18.037			-2.577
6301.000			-18.031			-2.576
6400.000			-18.026			-2.575
6500.000			-18.021			-2.574
6602.000			-18.016			-2.574
6701.000			-18.007			-2.572
6800.000			-18.002			-2.572
6901.000			-17.997			-2.571
7000.000			-17.993			-2.570
7100.000			-17.988			-2.570
7201.000			-17.984			-2.569
7300.000			-17.979			-2.568
7401.000			-17.971			-2.567
7502.000			-17.966			-2.567
7600.000			-17.962			-2.566
7700.000			-17.959			-2.566
7801.000			-17.955			-2.565
7900.000			-17.949			-2.564
8000.000			-17.945			-2.564
8101.000			-17.938			-2.563
8201.000			-17.935			-2.562
8301.000			-17.931			-2.562
8401.000			-17.927			-2.561
8500.000			-17.923			-2.560
8601.000			-17.920			-2.560
8700.000			-17.916			-2.559
8800.000			-17.912			-2.559
8901.000			-17.905			-2.558
9001.000			-17.902			-2.557
9101.000			-17.898			-2.557
9201.000			-17.895			-2.556
9300.000			-17.893			-2.556
9400.000			-17.889			-2.556
9501.000			-17.885			-2.555
9600.000			-17.879			-2.554
9700.000			-17.877			-2.554
9802.000			-17.873			-2.553
9901.000			-17.868			-2.553
10000.000			-17.865			-2.552
10101.000			-17.862			-2.552
10200.000			-17.859			-2.551
10300.000			-17.853			-2.550
10401.000			-17.849			-2.550
10501.000			-17.846			-2.549
10601.000			-17.843			-2.549
10702.000			-17.841			-2.549
10800.000			-17.836			-2.548
10900.000			-17.833			-2.548
11001.000			-17.827			-2.547
11100.000			-17.825			-2.546
11200.000			-17.822			-2.546
11301.000			-17.819			-2.546
11401.000			-17.817			-2.545
11501.000			-17.814			-2.545
11601.000			-17.811			-2.544
11700.000			-17.806			-2.544
11801.000			-17.802			-2.543
11900.000			-17.799			-2.543
12000.000			-17.795			-2.542
12101.000			-17.793			-2.542
12201.000			-17.790			-2.541
12301.000			-17.787			-2.541
12401.000			-17.785			-2.541
12500.000			-17.780			-2.540
12600.000			-17.777			-2.540
12701.000			-17.774			-2.539
12800.000			-17.772			-2.539
12900.000			-17.770			-2.539
13002.000			-17.768			-2.538
13101.000			-17.765			-2.538
13200.000			-17.760			-2.537
13301.000			-17.757			-2.537
13400.000			-17.755			-2.536
13500.000			-17.753			-2.536
13601.000			-17.750			-2.536
13700.000			-17.747			-2.535
13801.000			-17.744			-2.535
13902.000			-17.741			-2.534
14000.000			-17.738			-2.534
14100.000			-17.736			-2.534
14201.000			-17.733			-2.533
14300.000			-17.731			-2.533
14400.000			-17.730			-2.533
14501.000			-17.728			-2.533
14601.000			-17.726			-2.532
14701.000			-17.721			-2.532
14801.000			-17.718			-2.531
14900.000			-17.716			-2.531
15001.000			-17.714			-2.531
15100.000			-17.712			-2.530
15200.000			-17.710			-2.530
15301.000			-17.708			-2.530
15401.000			-17.705			-2.529
15501.000			-17.703			-2.529
15601.000			-17.700			-2.529
15700.000			-17.697			-2.528
15800.000			-17.695			-2.528
15901.000			-17.694			-2.528
16000.000			-17.692			-2.527
16100.000			-17.688			-2.527
16202.000			-17.685			-2.526
16301.000			-17.682			-2.526
16400.000			-17.681			-2.526
16501.000			-17.679			-2.526
16600.000			-17.677			-2.525
16700.000			-17.675			-2.525
16801.000			-17.672			-2.525
16900.000			-17.669			-2.524
17001.000			-17.668			-2.524
17102.000			-17.666			-2.524
17200.000			-17.664			-2.523
17300.000			-17.663			-2.523
17401.000			-17.660			-2.523
17500.000			-17.659			-2.523
17600.000			-17.654			-2.522
17701.000			-17.652			-2.522
17801.000			-17.651			-2.522
17901.000			-17.650			-2.521
18002.000			-17.649			-2.521
18100.000			-17.647			-2.521
18201.000			-17.644			-2.521
18300.000			-17.640			-2.520
18400.000			-17.638			-2.520
18501.000			-17.636			-2.519
18600.000			-17.634			-2.519
18701.000			-17.633			-2.519
18802.000			-17.631			-2.519
18900.000			-17.629			-2.518
19000.000			-17.625			-2.518
19101.000			-17.623			-2.518
19200.000			-17.622			-2.517
19300.000			-17.621			-2.517
19401.000			-17.620			-2.517
19501.000			-17.618			-2.517
19601.000			-17.616			-2.517
19701.000			-17.613			-2.516
19800.000			-17.611			-2.516
19900.000			-17.609			-2.516
20001.000			-17.607			-2.515
20100.000			-17.605			-2.515
20200.000			-17.604			-2.515
20302.000			-17.602			-2.515
20401.000			-17.601			-2.514
20500.000			-17.598			-2.514
20601.000			-17.598			-2.514
20700.000			-17.596			-2.514
20800.000			-17.593			-2.513
20901.000			-17.592			-2.513
21000.000			-17.591			-2.513
21101.000			-17.590			-2.513
21202.000			-17.586			-2.512
21300.000			-17.584			-2.512
21401.000			-17.583			-2.512
21500.000			-17.581			-2.512
21600.000			-17.579			-2.511
21701.000			-17.578			-2.511
21800.000			-17.576			-2.511
21901.000			-17.574			-2.511
22002.000			-17.573			-2.510
22100.000			-17.571			-2.510
22200.000			-17.569			-2.510
22301.000			-17.567			-2.510
22400.000			-17.566			-2.509
22500.000			-17.564			-2.509
22601.000			-17.563			-2.509
22701.000			-17.561			-2.509
22801.000			-17.559			-2.508
22901.000			-17.558			-2.508
23000.000			-17.557			-2.508
23100.000			-17.556			-2.508
23201.000			-17.554			-2.508
23300.000			-17.552			-2.507
23400.000			-17.550			-2.507
23502.000			-17.549			-2.507
23601.000			-17.547			-2.507
23700.000			-17.546			-2.507
23801.000			-17.545			-2.506
23900.000			-17.544			-2.506
24000.000			-17.542			-2.506
24101.000			-17.540			-2.506
24200.000			-17.539			-2.506
24301.000			-17.537			-2.505
24402.000			-17.536			-2.505
24500.000			-17.535			-2.505
24601.000			-17.533			-2.505
24700.000			-17.531			-2.504
24800.000			-17.528			-2.504
24901.000			-17.527			-2.504
25000.000			-17.526			-2.504
25101.000			-17.524			-2.503
25202.000			-17.523			-2.503
25300.000			-17.521			-2.503
25400.000			-17.520			-2.503
25501.000			-17.519			-2.503
25600.000			-17.516			-2.502
25700.000			-17.515			-2.502
25801.000			-17.514			-2.502
25901.000			-17.515			-2.502
26001.000			-17.513			-2.502
26101.000			-17.511			-2.502
26200.000			-17.510			-2.501
26300.000			-17.506			-2.501
26401.000			-17.505			-2.501
26500.000			-17.504			-2.501
26600.000			-17.503			-2.500
26702.000			-17.503			-2.500
26801.000			-17.500			-2.500
26900.000			-17.499			-2.500
27001.000			-17.497			-2.500
27100.000			-17.495			-2.499
27200.000			-17.494			-2.499
27301.000			-17.493			-2.499
27400.000			-17.492			-2.499
27501.000			-17.491			-2.499
27602.000			-17.490			-2.499
27700.000			-17.487			-2.498
27801.000			-17.486			-2.498
27900.000			-17.485			-2.498
28000.000			-17.484			-2.498
28101.000			-17.482			-2.497
28200.000			-17.482			-2.497
28301.000			-17.481			-2.497
28402.000			-17.479			-2.497
28500.000			-17.477			-2.497
28600.000			-17.476			-2.497
28701.000			-17.475			-2.496
28800.000			-17.473			-2.496
28900.000			-17.472			-2.496
29001.000			-17.471			-2.496
29101.000			-17.470			-2.496
29201.000			-17.468			-2.495
29301.000			-17.467			-2.495
29400.000			-17.466			-2.495
29500.000			-17.465			-2.495
29601.000			-17.463			-2.495
29700.000			-17.462			-2.495
29800.000			-17.461			-2.494
29902.000			-17.459			-2.494
30001.000			-17.458			-2.494
30100.000			-17.457			-2.494
30201.000			-17.456			-2.494
30300.000			-17.454			-2.493
30400.000			-17.453			-2.493
30501.000			-17.452			-2.493
30600.000			-17.449			-2.493
30701.000			-17.449			-2.493
30802.000			-17.448			-2.493
30900.000			-17.447			-2.492
31001.000			-17.446			-2.492
31100.000			-17.444			-2.492
31200.000			-17.443			-2.492
31301.000			-17.443			-2.492
31400.000			-17.441			-2.492
31501.000			-17.440			-2.491
31602.000			-17.440			-2.491
31700.000			-17.437			-2.491
31800.000			-17.436			-2.491
31901.000			-17.436			-2.491
32000.000			-17.435			-2.491
32100.000			-17.433			-2.490
32201.000			-17.431			-2.490
32301.000			-17.431			-2.490
32401.000			-17.429			-2.490
32501.000			-17.427			-2.490
32600.000			-17.426			-2.489
32700.000			-17.425			-2.489
32801.000			-17.425			-2.489
32900.000			-17.424			-2.489
33000.000			-17.423			-2.489
33102.000			-17.422			-2.489
33201.000			-17.421			-2.489
33300.000			-17.419			-2.488
33401.000			-17.417			-2.488
33500.000			-17.416			-2.488
33600.000			-17.414			-2.488
33701.000			-17.414			-2.488
33801.000			-17.414			-2.488
33901.000			-17.413			-2.488
34002.000			-17.412			-2.487
34100.000			-17.411			-2.487
34201.000			-17.410			-2.487
34300.000			-17.407			-2.487
34400.000			-17.407			-2.487
34501.000			-17.406			-2.487
34601.000			-17.405			-2.486
34701.000			-17.403			-2.486
34801.000			-17.403			-2.486
34900.000			-17.403			-2.486
35000.000			-17.400			-2.486
35101.000			-17.400			-2.486
35200.000			-17.399			-2.486
35300.000			-17.398			-2.485
35402.000			-17.397			-2.485
35501.000			-17.396			-2.485
35601.000			-17.395			-2.485
35701.000			-17.394			-2.485
35800.000			-17.392			-2.485
35900.000			-17.391			-2.484
36001.000			-17.391			-2.484
36100.000			-17.389			-2.484
36200.000			-17.388			-2.484
36302.000			-17.388			-2.484
36401.000			-17.385			-2.484
36500.000			-17.385			-2.484
36601.000			-17.384			-2.483
36700.000			-17.383			-2.483
36800.000			-17.382			-2.483
36901.000			-17.382			-2.483
37000.000			-17.381			-2.483
37101.000			-17.380			-2.483
37202.000			-17.378			-2.483
37300.000			-17.378			-2.483
37401.000			-17.376			-2.482
37500.000			-17.375			-2.482
37600.000			-17.374			-2.482
37701.000			-17.373			-2.482
37800.000			-17.373			-2.482
37901.000			-17.370			-2.481
38002.000			-17.370			-2.481
38100.000			-17.369			-2.481
38200.000			-17.368			-2.481
38301.000			-17.367			-2.481
38400.000			-17.366			-2.481
38500.000			-17.365			-2.481
38601.000			-17.363			-2.480
38701.000			-17.362			-2.480
38801.000			-17.362			-2.480
38901.000			-17.361			-2.480
39000.000			-17.361			-2.480
39100.000			-17.360			-2.480
39201.000			-17.359			-2.480
39300.000			-17.358			-2.480
39400.000			-17.356			-2.479
39502.000			-17.355			-2.479
39601.000			-17.354			-2.479
39700.000			-17.354			-2.479
39801.000			-17.354			-2.479
39900.000			-17.353			-2.479
40000.000			-17.351			-2.479
40101.000			-17.349			-2.478
40200.000			-17.348			-2.478
40301.000			-17.348			-2.478
40402.000			-17.347			-2.478
40500.000			-17.346			-2.478
40601.000			-17.346			-2.478
40700.000			-17.345			-2.478
40800.000			-17.342			-2.477
40901.000			-17.341			-2.477
41000.000			-17.341			-2.477
41101.000			-17.340			-2.477
41202.000			-17.339			-2.477
41300.000			-17.339			-2.477
41400.000			-17.339			-2.477
41501.000			-17.336			-2.477
41600.000			-17.334			-2.476
41700.000			-17.334			-2.476
41801.000			-17.334			-2.476
41901.000			-17.334			-2.476
42001.000			-17.333			-2.476
42101.000			-17.332			-2.476
42200.000			-17.331			-2.476
42300.000			-17.329			-2.476
42401.000			-17.327			-2.475
42500.000			-17.326			-2.475
42601.000			-17.327			-2.475
42702.000			-17.326			-2.475
42801.000			-17.325			-2.475
42900.000			-17.324			-2.475
43001.000			-17.323			-2.475
43100.000			-17.321			-2.474
43200.000			-17.321			-2.474
43301.000			-17.319			-2.474
43401.000			-17.321			-2.474
43501.000			-17.320			-2.474
43601.000			-17.319			-2.474
43700.000			-17.316			-2.474
43801.000			-17.315			-2.474
43900.000			-17.314			-2.473
44000.000			-17.315			-2.474
44101.000			-17.313			-2.473
44201.000			-17.313			-2.473
44301.000			-17.312			-2.473
44401.000			-17.311			-2.473
44500.000			-17.310			-2.473
44600.000			-17.309			-2.473
44701.000			-17.309			-2.473
44800.000			-17.308			-2.473
44900.000			-17.307			-2.472
45002.000			-17.306			-2.472
45101.000			-17.305			-2.472
45200.000			-17.304			-2.472
45301.000			-17.304			-2.472
45400.000			-17.303			-2.472
45500.000			-17.303			-2.472
45601.000			-17.302			-2.472
45700.000			-17.302			-2.472
45801.000			-17.300			-2.471
45902.000			-17.299			-2.471
46000.000			-17.298			-2.471
46100.000			-17.298			-2.471
46201.000			-17.296			-2.471
46300.000			-17.294			-2.471
46400.000			-17.294			-2.471
46501.000			-17.294			-2.471
46601.000			-17.293			-2.470
46701.000			-17.292			-2.470
46801.000			-17.292			-2.470
46900.000			-17.291			-2.470
47001.000			-17.290			-2.470
47100.000			-17.289			-2.470
47200.000			-17.288			-2.470
47301.000			-17.288			-2.470
47401.000			-17.286			-2.469
47501.000			-17.286			-2.469
47601.000			-17.284			-2.469
47700.000			-17.283			-2.469
47800.000			-17.284			-2.469
47901.000			-17.283			-2.469
48000.000			-17.281			-2.469
48100.000			-17.281			-2.469
48202.000			-17.280			-2.469
48301.000			-17.280			-2.469
48401.000			-17.279			-2.468
48501.000			-17.278			-2.468
48600.000			-17.278			-2.468
48700.000			-17.277			-2.468
48801.000			-17.276			-2.468
48900.000			-17.275			-2.468
49000.000			-17.274			-2.468
49102.000			-17.273			-2.468
49201.000			-17.272			-2.467
49300.000			-17.272			-2.467
49401.000			-17.272			-2.467
49500.000			-17.270			-2.467
49600.000			-17.270			-2.467
49701.000			-17.268			-2.467
49800.000			-17.268			-2.467
49901.000			-17.267			-2.467
50002.000			-17.266			-2.467
50100.000			-17.266			-2.467
50201.000			-17.265			-2.466
50300.000			-17.263			-2.466
50400.000			-17.262			-2.466
50501.000			-17.263			-2.466
50600.000			-17.262			-2.466
50701.000			-17.261			-2.466
50802.000			-17.262			-2.466
50900.000			-17.261			-2.466
51000.000			-17.259			-2.466
51101.000			-17.258			-2.465
51200.000			-17.257			-2.465
51300.000			-17.258			-2.465
51401.000			-17.257			-2.465
51501.000			-17.255			-2.465
51601.000			-17.255			-2.465
51701.000			-17.255			-2.465
51800.000			-17.254			-2.465
51900.000			-17.253			-2.465
52001.000			-17.252			-2.465
52100.000			-17.252			-2.465
52200.000			-17.250			-2.464
52302.000			-17.249			-2.464
52401.000			-17.249			-2.464
52500.000			-17.248			-2.464
52601.000			-17.246			-2.464
52700.000			-17.246			-2.464
52800.000			-17.247			-2.464
52901.000			-17.246			-2.464
53001.000			-17.246			-2.464
53101.000			-17.245			-2.464
53201.000			-17.243			-2.463
53300.000			-17.243			-2.463
53401.000			-17.242			-2.463
53500.000			-17.242			-2.463
53600.000			-17.241			-2.463
53701.000			-17.240			-2.463
53801.000			-17.239			-2.463
53901.000			-17.239			-2.463
54001.000			-17.238			-2.463
54100.000			-17.237			-2.462
54200.000			-17.236			-2.462
54301.000			-17.236			-2.462
54400.000			-17.237			-2.462
54500.000			-17.236			-2.462
54602.000			-17.235			-2.462
54701.000			-17.235			-2.462
54800.000			-17.234			-2.462
54901.000			-17.233			-2.462
55000.000			-17.230			-2.461
55100.000			-17.231			-2.462
55201.000			-17.231			-2.462
55300.000			-17.229			-2.461
55401.000			-17.228			-2.461
55502.000			-17.227			-2.461
55600.000			-17.226			-2.461
55700.000			-17.226			-2.461
55801.000			-17.226			-2.461
55900.000			-17.226			-2.461
56000.000			-17.224			-2.461
56101.000			-17.223			-2.460
56201.000			-17.223			-2.460
56301.000			-17.221			-2.460
56401.000			-17.221			-2.460
56500.000			-17.221			-2.460
56601.000			-17.220			-2.460
56700.000			-17.220			-2.460
56800.000			-17.219			-2.460
56901.000			-17.218			-2.460
57001.000			-17.218			-2.460
57101.000			-17.217			-2.460
57201.000			-17.216			-2.459
57300.000			-17.216			-2.459
57400.000			-17.215			-2.459
57501.000			-17.215			-2.459
57600.000			-17.213			-2.459
57700.000			-17.212			-2.459
57802.000			-17.212			-2.459
57901.000			-17.212			-2.459
58000.000			-17.212			-2.459
58101.000			-17.211			-2.459
58200.000			-17.210			-2.459
58300.000			-17.209			-2.458
58401.000			-17.208			-2.458
58500.000			-17.207			-2.458
58601.000			-17.206			-2.458
58702.000			-17.207			-2.458
58800.000			-17.205			-2.458
58900.000			-17.205			-2.458
59001.000			-17.205			-2.458
59100.000			-17.203			-2.458
59200.000			-17.203			-2.458
59301.000			-17.203			-2.458
59401.000			-17.202			-2.457
59501.000			-17.202			-2.457
59601.000			-17.201			-2.457
59700.000			-17.200			-2.457
59801.000			-17.200			-2.457
59900.000			-17.199			-2.457
60000.000			-17.199			-2.457
60101.000			-17.198			-2.457
60201.000			-17.198			-2.457
60301.000			-17.197			-2.457
60401.000			-17.196			-2.457
60500.000			-17.195			-2.456
60600.000			-17.194			-2.456
60701.000			-17.193			-2.456
60800.000			-17.192			-2.456
60900.000			-17.192			-2.456
61002.000			-17.191			-2.456
61101.000			-17.191			-2.456
61200.000			-17.190			-2.456
61301.000			-17.189			-2.456
61400.000			-17.189			-2.456
61500.000			-17.188			-2.455
61601.000			-17.188			-2.455
61700.000			-17.188			-2.455
61801.000			-17.186			-2.455
61902.000			-17.184			-2.455
62000.000			-17.183			-2.455
62100.000			-17.184			-2.455
62201.000			-17.184			-2.455
62300.000			-17.183			-2.455
62400.000			-17.182			-2.455
62501.000			-17.181			-2.454
62601.000			-17.180			-2.454
62701.000			-17.180			-2.454
62801.000			-17.179			-2.454
62900.000			-17.180			-2.454
63001.000			-17.179			-2.454
63100.000			-17.178			-2.454
63200.000			-17.178			-2.454
63301.000			-17.177			-2.454
63401.000			-17.177			-2.454
63501.000			-17.176			-2.454
63601.000			-17.175			-2.454
63700.000			-17.174			-2.453
63800.000			-17.173			-2.453
63901.000			-17.174			-2.453
64000.000			-17.173			-2.453
64100.000			-17.171			-2.453
64202.000			-17.170			-2.453
64301.000			-17.170			-2.453
64400.000			-17.170			-2.453
64501.000			-17.169			-2.453
64600.000			-17.169			-2.453
64700.000			-17.169			-2.453
64801.000			-17.167			-2.452
64900.000			-17.167			-2.452
65001.000			-17.167			-2.452
65102.000			-17.165			-2.452
65200.000			-17.165			-2.452
65300.000			-17.165			-2.452
65401.000			-17.164			-2.452
65500.000			-17.162			-2.452
65600.000			-17.161			-2.452
65701.000			-17.162			-2.452
65801.000			-17.162			-2.452
65901.000			-17.160			-2.451
66001.000			-17.160			-2.451
66100.000			-17.160			-2.451
66201.000			-17.158			-2.451
66300.000			-17.157			-2.451
66400.000			-17.156			-2.451
66501.000			-17.157			-2.451
66600.000			-17.155			-2.451
66701.000			-17.154			-2.451
66802.000			-17.155			-2.451
66900.000			-17.154			-2.451
67000.000			-17.153			-2.450
67101.000			-17.153			-2.450
67200.000			-17.153			-2.450
67300.000			-17.153			-2.450
67401.000			-17.152			-2.450
67501.000			-17.150			-2.450
67601.000			-17.150			-2.450
67701.000			-17.149			-2.450
67800.000			-17.149			-2.450
67900.000			-17.148			-2.450
68001.000			-17.147			-2.450
68100.000			-17.147			-2.450
68200.000			-17.147			-2.450
68302.000			-17.146			-2.449
68401.000			-17.143			-2.449
68500.000			-17.143			-2.449
68601.000			-17.143			-2.449
68700.000			-17.143			-2.449
68800.000			-17.143			-2.449
68901.000			-17.142			-2.449
69000.000			-17.140			-2.449
69101.000			-17.140			-2.449
69202.000			-17.141			-2.449
69300.000			-17.139			-2.448
69401.000			-17.139			-2.448
69500.000			-17.138			-2.448
69600.000			-17.139			-2.448
69701.000			-17.138			-2.448
69800.000			-17.138			-2.448
69901.000			-17.136			-2.448
70002.000			-17.135			-2.448
70101.000			-17.135			-2.448
70200.000			-17.135			-2.448
70301.000			-17.135			-2.448
70400.000			-17.133			-2.448
70500.000			-17.133			-2.448
70601.000			-17.132			-2.447
70701.000			-17.132			-2.447
70801.000			-17.131			-2.447
70901.000			-17.130			-2.447
71000.000			-17.130			-2.447
71100.000			-17.129			-2.447
71201.000			-17.128			-2.447
71300.000			-17.129			-2.447
71400.000			-17.127			-2.447
71502.000			-17.126			-2.447
71601.000			-17.127			-2.447
71700.000			-17.127			-2.447
71801.000			-17.126			-2.447
71900.000			-17.123			-2.446
72000.000			-17.124			-2.446
72101.000			-17.124			-2.446
72200.000			-17.124			-2.446
72301.000			-17.124			-2.446
72402.000			-17.122			-2.446
72500.000			-17.122			-2.446
72601.000			-17.121			-2.446
72700.000			-17.121			-2.446
72800.000			-17.121			-2.446
72901.000			-17.119			-2.446
73000.000			-17.118			-2.445
73101.000			-17.119			-2.446
73202.000			-17.119			-2.446
73300.000			-17.118			-2.445
73400.000			-17.117			-2.445
73501.000			-17.116			-2.445
73600.000			-17.115			-2.445
73700.000			-17.116			-2.445
73801.000			-17.116			-2.445
73901.000			-17.115			-2.445
74001.000			-17.115			-2.445
74101.000			-17.114			-2.445
74200.000			-17.113			-2.445
74300.000			-17.113			-2.445
74401.000			-17.112			-2.445
74500.000			-17.112			-2.445
74600.000			-17.111			-2.444
74702.000			-17.111			-2.444
74801.000			-17.111			-2.444
74900.000			-17.110			-2.444
75001.000			-17.109			-2.444
75100.000			-17.109			-2.444
75200.000			-17.108			-2.444
75301.000			-17.107			-2.444
75400.000			-17.107			-2.444
75501.000			-17.106			-2.444
75602.000			-17.106			-2.444
75700.000			-17.105			-2.444
75801.000			-17.104			-2.443
75900.000			-17.105			-2.444
76000.000			-17.104			-2.443
76101.000			-17.104			-2.443
76200.000			-17.104			-2.443
76301.000			-17.103			-2.443
76402.000			-17.102			-2.443
76500.000			-17.101			-2.443
76600.000			-17.099			-2.443
76701.000			-17.099			-2.443
76800.000			-17.100			-2.443
76900.000			-17.100			-2.443
77001.000			-17.099			-2.443
77101.000			-17.098			-2.443
77201.000			-17.100			-2.443
77302.000			-17.098			-2.443
77400.000			-17.098			-2.443
77500.000			-17.097			-2.442
77601.000			-17.097			-2.442
77700.000			-17.095			-2.442
77800.000			-17.094			-2.442
77901.000			-17.094			-2.442
78001.000			-17.094			-2.442
78101.000			-17.094			-2.442
78201.000			-17.094			-2.442
78300.000			-17.093			-2.442
78400.000			-17.093			-2.442
78501.000			-17.093			-2.442
78600.000			-17.090			-2.441
78700.000			-17.089			-2.441
78802.000			-17.089			-2.441
78901.000			-17.089			-2.441
79001.000			-17.089			-2.441
79100.000			-17.088			-2.441
79200.000			-17.088			-2.441
79301.000			-17.085			-2.441
79400.000			-17.085			-2.441
79500.000			-17.085			-2.441
79601.000			-17.084			-2.441
79701.000			-17.084			-2.441
79801.000			-17.084			-2.441
79901.000			-17.084			-2.441
80000.000			-17.083			-2.440
80100.000			-17.082			-2.440
80201.000			-17.082			-2.440
80300.000			-17.081			-2.440
80400.000			-17.081			-2.440
80502.000			-17.081			-2.440
80601.000			-17.080			-2.440
80700.000			-17.079			-2.440
80801.000			-17.078			-2.440
80900.000			-17.079			-2.440
81000.000			-17.078			-2.440
81101.000			-17.076			-2.439
81200.000			-17.076			-2.439
81301.000			-17.076			-2.439
81402.000			-17.075			-2.439
81500.000			-17.074			-2.439
81600.000			-17.074			-2.439
81701.000			-17.074			-2.439
81800.000			-17.073			-2.439
81900.000			-17.072			-2.439
82001.000			-17.072			-2.439
82101.000			-17.072			-2.439
82202.000			-17.071			-2.439
82300.000			-17.070			-2.439
82400.000			-17.071			-2.439
82501.000			-17.070			-2.439
82600.000			-17.070			-2.439
82700.000			-17.069			-2.438
82801.000			-17.069			-2.438
82901.000			-17.068			-2.438
83001.000			-17.069			-2.438
83101.000			-17.067			-2.438
83200.000			-17.066			-2.438
83300.000			-17.065			-2.438
83401.000			-17.065			-2.438
83500.000			-17.065			-2.438
83600.000			-17.065			-2.438
83702.000			-17.064			-2.438
83801.000			-17.064			-2.438
83901.000			-17.064			-2.438
84001.000			-17.063			-2.438
84100.000			-17.063			-2.438
84200.000			-17.063			-2.438
84301.000			-17.061			-2.437
84400.000			-17.061			-2.437
84500.000			-17.061			-2.437
84602.000			-17.060			-2.437
84701.000			-17.059			-2.437
84800.000			-17.059			-2.437
84901.000			-17.059			-2.437
85000.000			-17.059			-2.437
85100.000			-17.059			-2.437
85201.000			-17.059			-2.437
85300.000			-17.058			-2.437
85402.000			-17.057			-2.437
85501.000			-17.056			-2.437
85600.000			-17.055			-2.436
85701.000			-17.055			-2.436
85800.000			-17.055			-2.436
85900.000			-17.054			-2.436
86001.000			-17.054			-2.436
86100.000			-17.053			-2.436
86201.000			-17.052			-2.436
86302.000			-17.051			-2.436
86401.000			-17.052			-2.436
86500.000			-17.051			-2.436
86601.000			-17.052			-2.436
86700.000			-17.051			-2.436
86800.000			-17.050			-2.436
86901.000			-17.050			-2.436
87000.000			-17.049			-2.436
87101.000			-17.048			-2.435
87202.000			-17.048			-2.435
87300.000			-17.048			-2.435
87400.000			-17.047			-2.435
87501.000			-17.047			-2.435
87600.000			-17.047			-2.435
87700.000			-17.047			-2.435
87801.000			-17.047			-2.435
87901.000			-17.046			-2.435
88001.000			-17.045			-2.435
88101.000			-17.044			-2.435
88200.000			-17.043			-2.435
88300.000			-17.044			-2.435
88401.000			-17.045			-2.435
88500.000			-17.044			-2.435
88601.000			-17.043			-2.435
88701.000			-17.043			-2.435
88801.000			-17.043			-2.435
88901.000			-17.041			-2.434
89000.000			-17.041			-2.434
89100.000			-17.041			-2.434
89201.000			-17.041			-2.434
89300.000			-17.040			-2.434
89400.000			-17.040			-2.434
89501.000			-17.039			-2.434
89601.000			-17.039			-2.434
89701.000			-17.038			-2.434
89801.000			-17.038			-2.434
89900.000			-17.037			-2.434
90000.000			-17.036			-2.434
90101.000			-17.036			-2.434
90200.000			-17.036			-2.434
90300.000			-17.034			-2.433
90402.000			-17.034			-2.433
90501.000			-17.034			-2.433
90600.000			-17.034			-2.433
90701.000			-17.033			-2.433
90800.000			-17.032			-2.433
90900.000			-17.032			-2.433
91001.000			-17.031			-2.433
91100.000			-17.031			-2.433
91201.000			-17.031			-2.433
91302.000			-17.030			-2.433
91400.000			-17.030			-2.433
91500.000			-17.029			-2.433
91601.000			-17.029			-2.433
91700.000			-17.029			-2.433
91801.000			-17.028			-2.433
91900.000			-17.028			-2.433
92001.000			-17.028			-2.433
92102.000			-17.028			-2.433
92200.000			-17.027			-2.432
92300.000			-17.027			-2.432
92401.000			-17.025			-2.432
92500.000			-17.025			-2.432
92600.000			-17.025			-2.432
92701.000			-17.025			-2.432
92801.000			-17.025			-2.432
92901.000			-17.024			-2.432
93001.000			-17.024			-2.432
93100.000			-17.025			-2.432
93200.000			-17.023			-2.432
93301.000			-17.023			-2.432
93400.000			-17.023			-2.432
93500.000			-17.022			-2.432
93602.000			-17.022			-2.432
93701.000			-17.021			-2.432
93800.000			-17.022			-2.432
93901.000			-17.019			-2.431
94000.000			-17.020			-2.431
94100.000			-17.019			-2.431
94201.000			-17.019			-2.431
94300.000			-17.019			-2.431
94401.000			-17.019			-2.431
94502.000			-17.018			-2.431
94600.000			-17.018			-2.431
94700.000			-17.017			-2.431
94801.000			-17.018			-2.431
94900.000			-17.017			-2.431
95001.000			-17.017			-2.431
95100.000			-17.016			-2.431
95201.000			-17.016			-2.431
95302.000			-17.015			-2.431
95400.000			-17.015			-2.431
95500.000			-17.014			-2.431
95601.000			-17.014			-2.431
95700.000			-17.014			-2.431
95800.000			-17.014			-2.431
95901.000			-17.014			-2.431
96001.000			-17.013			-2.430
96101.000			-17.013			-2.430
96201.000			-17.013			-2.430
96300.000			-17.012			-2.430
96400.000			-17.012			-2.430
96501.000			-17.012			-2.430
96600.000			-17.013			-2.430
96700.000			-17.012			-2.430
96802.000			-17.011			-2.430
96901.000			-17.009			-2.430
97000.000			-17.009			-2.430
97101.000			-17.009			-2.430
97200.000			-17.009			-2.430
97300.000			-17.008			-2.430
97401.000			-17.008			-2.430
97500.000			-17.008			-2.430
97601.000			-17.008			-2.430
97702.000			-17.008			-2.430
97800.000			-17.008			-2.430
97900.000			-17.007			-2.430
98001.000			-17.006			-2.429
98100.000			-17.006			-2.429
98201.000			-17.005			-2.429
98300.000			-17.005			-2.429
98401.000			-17.005			-2.429
98502.000			-17.004			-2.429
98601.000			-17.005			-2.429
98700.000			-17.003			-2.429
98801.000			-17.004			-2.429
98900.000			-17.004			-2.429
99000.000			-17.001			-2.429
99101.000			-17.001			-2.429
99200.000			-17.001			-2.429
99301.000			-17.001			-2.429
99402.000			-17.001			-2.429
99500.000			-17.001			-2.429
99600.000			-17.000			-2.429
99701.000			-16.999			-2.428
99800.000			-16.999			-2.428
99900.000			-16.999			-2.428
100001.000			-16.998			-2.428
100101.000			-16.998			-2.428
100201.000			-16.997			-2.428
100302.000			-16.998			-2.428
100400.000			-16.997			-2.428
100500.000			-16.997			-2.428
100601.000			-16.996			-2.428
100700.000			-16.995			-2.428
100800.000			-16.994			-2.428
100901.000			-16.994			-2.428
101001.000			-16.994			-2.428
101101.000			-16.994			-2.428
101201.000			-16.994			-2.428
101300.000			-16.993			-2.428
101401.000			-16.992			-2.427
101500.000			-16.992			-2.427
101600.000			-16.992			-2.427
101701.000			-16.991			-2.427
101800.000			-16.991			-2.427
101901.000			-16.989			-2.427
102002.000			-16.989			-2.427
102100.000			-16.990			-2.427
102200.000			-16.990			-2.427
102301.000			-16.989			-2.427
102400.000			-16.988			-2.427
102500.000			-16.988			-2.427
102601.000			-16.988			-2.427
102701.000			-16.988			-2.427
102801.000			-16.988			-2.427
102902.000			-16.988			-2.427
103000.000			-16.987			-2.427
103100.000			-16.985			-2.426
103201.000			-16.985			-2.426
103300.000			-16.984			-2.426
103400.000			-16.983			-2.426
103501.000			-16.984			-2.426
103601.000			-16.983			-2.426
103701.000			-16.982			-2.426
103801.000			-16.983			-2.426
103900.000			-16.983			-2.426
104000.000			-16.981			-2.426
104101.000			-16.981			-2.426
104200.000			-16.980			-2.426
104300.000			-16.980			-2.426
104401.000			-16.980			-2.426
104501.000			-16.981			-2.426
104602.000			-16.980			-2.426
104700.000			-16.979			-2.426
104800.000			-16.978			-2.425
104901.000			-16.978			-2.425
105000.000			-16.978			-2.425
105100.000			-16.977			-2.425
105201.000			-16.976			-2.425
105301.000			-16.976			-2.425
105401.000			-16.976			-2.425
105502.000			-16.976			-2.425
105600.000			-16.975			-2.425
105700.000			-16.975			-2.425
105801.000			-16.975			-2.425
105900.000			-16.974			-2.425
106000.000			-16.974			-2.425
106101.000			-16.974			-2.425
106201.000			-16.973			-2.425
106301.000			-16.973			-2.425
106401.000			-16.973			-2.425
106500.000			-16.972			-2.425
106600.000			-16.972			-2.425
106701.000			-16.971			-2.424
106800.000			-16.971			-2.424
106900.000			-16.971			-2.424
107001.000			-16.970			-2.424
107101.000			-16.969			-2.424
107201.000			-16.968			-2.424
107301.000			-16.968			-2.424
107400.000			-16.968			-2.424
107500.000			-16.967			-2.424
107601.000			-16.966			-2.424
107700.000			-16.967			-2.424
107801.000			-16.966			-2.424
107900.000			-16.966			-2.424
108001.000			-16.966			-2.424
108102.000			-16.966			-2.424
108200.000			-16.965			-2.424
108300.000			-16.965			-2.424
108401.000			-16.964			-2.423
108500.000			-16.964			-2.423
108600.000			-16.963			-2.423
108701.000			-16.962			-2.423
108800.000			-16.963			-2.423
108901.000			-16.964			-2.423
109002.000			-16.964			-2.423
109100.000			-16.962			-2.423
109200.000			-16.962			-2.423
109301.000			-16.962			-2.423
109400.000			-16.960			-2.423
109500.000			-16.960			-2.423
109601.000			-16.960			-2.423
109701.000			-16.960			-2.423
109801.000			-16.960			-2.423
109902.000			-16.960			-2.423
110000.000			-16.960			-2.423
110100.000			-16.960			-2.423
110201.000			-16.960			-2.423
110300.000			-16.958			-2.423
110400.000			-16.958			-2.423
110501.000			-16.958			-2.423
110601.000			-16.957			-2.422
110701.000			-16.957			-2.422
110802.000			-16.957			-2.422
110900.000			-16.957			-2.422
111001.000			-16.957			-2.422
111100.000			-16.956			-2.422
111200.000			-16.956			-2.422
111301.000			-16.955			-2.422
111400.000			-16.955			-2.422
111501.000			-16.955			-2.422
111602.000			-16.955			-2.422
111700.000			-16.954			-2.422
111800.000			-16.954			-2.422
111901.000			-16.954			-2.422
112000.000			-16.953			-2.422
112100.000			-16.953			-2.422
112201.000			-16.953			-2.422
112301.000			-16.952			-2.422
112401.000			-16.951			-2.422
112502.000			-16.952			-2.422
112600.000			-16.952			-2.422
112700.000			-16.952			-2.422
112801.000			-16.951			-2.422
112900.000			-16.951			-2.422
113000.000			-16.950			-2.421
113101.000			-16.950			-2.421
113201.000			-16.949			-2.421
113301.000			-16.949			-2.421
113401.000			-16.949			-2.421
113500.000			-16.948			-2.421
113600.000			-16.948			-2.421
113701.000			-16.947			-2.421
113800.000			-16.947			-2.421
113900.000			-16.947			-2.421
114002.000			-16.947			-2.421
114101.000			-16.946			-2.421
114202.000			-16.946			-2.421
114300.000			-16.945			-2.421
114400.000			-16.944			-2.421
114501.000			-16.944			-2.421
114600.000			-16.944			-2.421
114700.000			-16.944			-2.421
114801.000			-16.943			-2.420
114901.000			-16.944			-2.421
115001.000			-16.945			-2.421
115101.000			-16.944			-2.421
115200.000			-16.944			-2.421
115300.000			-16.943			-2.420
115401.000			-16.941			-2.420
115500.000			-16.941			-2.420
115600.000			-16.941			-2.420
115701.000			-16.940			-2.420
115801.000			-16.940			-2.420
115901.000			-16.940			-2.420
116001.000			-16.940			-2.420
116100.000			-16.940			-2.420
116200.000			-16.939			-2.420
116301.000			-16.939			-2.420
116400.000			-16.937			-2.420
116500.000			-16.937			-2.420
116602.000			-16.938			-2.420
116701.000			-16.938			-2.420
116801.000			-16.938			-2.420
116901.000			-16.937			-2.420
117000.000			-16.937			-2.420
117100.000			-16.936			-2.419
117201.000			-16.936			-2.419
117300.000			-16.935			-2.419
117401.000			-16.934			-2.419
117501.000			-16.934			-2.419
117601.000			-16.935			-2.419
117701.000			-16.935			-2.419
117800.000			-16.934			-2.419
117900.000			-16.933			-2.419
118001.000			-16.932			-2.419
118100.000			-16.932			-2.419
118200.000			-16.932			-2.419
118301.000			-16.932			-2.419
118401.000			-16.932			-2.419
118501.000			-16.932			-2.419
118601.000			-16.930			-2.419
118700.000			-16.931			-2.419
118800.000			-16.930			-2.419
118901.000			-16.931			-2.419
119000.000			-16.930			-2.419
119100.000			-16.929			-2.418
119202.000			-16.929			-2.418
119301.000			-16.927			-2.418
119401.000			-16.927			-2.418
119501.000			-16.927			-2.418
119600.000			-16.927			-2.418
119700.000			-16.927			-2.418
119801.000			-16.928			-2.418
119900.000			-16.926			-2.418
120000.000			-16.925			-2.418
120102.000			-16.925			-2.418
120201.000			-16.925			-2.418
120300.000			-16.924			-2.418
120401.000			-16.924			-2.418
120500.000			-16.925			-2.418
120601.000			-16.924			-2.418
120700.000			-16.924			-2.418
120800.000			-16.923			-2.418
120901.000			-16.923			-2.418
121001.000			-16.923			-2.418
121101.000			-16.923			-2.418
121201.000			-16.923			-2.418
121300.000			-16.923			-2.418
121400.000			-16.922			-2.417
121501.000			-16.921			-2.417
121600.000			-16.921			-2.417
121700.000			-16.921			-2.417
121802.000			-16.920			-2.417
121901.000			-16.920			-2.417
122000.000			-16.919			-2.417
122101.000			-16.920			-2.417
122200.000			-16.919			-2.417
122300.000			-16.919			-2.417
122401.000			-16.918			-2.417
122500.000			-16.919			-2.417
122600.000			-16.918			-2.417
122702.000			-16.917			-2.417
122801.000			-16.918			-2.417
122900.000			-16.917			-2.417
123001.000			-16.916			-2.417
123100.000			-16.916			-2.417
123200.000			-16.916			-2.417
123301.000			-16.915			-2.416
123400.000			-16.916			-2.417
123501.000			-16.915			-2.416
123602.000			-16.913			-2.416
123701.000			-16.916			-2.417
123801.000			-16.914			-2.416
123900.000			-16.913			-2.416
124000.000			-16.913			-2.416
124101.000			-16.912			-2.416
124200.000			-16.913			-2.416
124300.000			-16.912			-2.416
124402.000			-16.912			-2.416
124501.000			-16.911			-2.416
124600.000			-16.911			-2.416
124701.000			-16.911			-2.416
124800.000			-16.911			-2.416
124900.000			-16.911			-2.416
125001.000			-16.910			-2.416
125100.000			-16.908			-2.415
125201.000			-16.908			-2.415
125302.000			-16.908			-2.415
125401.000			-16.908			-2.415
125500.000			-16.908			-2.415
125601.000			-16.909			-2.416
125700.000			-16.909			-2.416
125800.000			-16.908			-2.415
125901.000			-16.906			-2.415
126000.000			-16.907			-2.415
126101.000			-16.907			-2.415
126202.000			-16.907			-2.415
126301.000			-16.907			-2.415
126400.000			-16.906			-2.415
126501.000			-16.905			-2.415
126600.000			-16.905			-2.415
126700.000			-16.905			-2.415
126801.000			-16.905			-2.415
126900.000			-16.905			-2.415
127002.000			-16.905			-2.415
127101.000			-16.905			-2.415
127200.000			-16.903			-2.415
127301.000			-16.902			-2.415
127400.000			-16.902			-2.415
127500.000			-16.902			-2.415
127601.000			-16.902			-2.415
127700.000			-16.902			-2.415
127800.000			-16.901			-2.414
127902.000			-16.901			-2.414
128001.000			-16.901			-2.414
128100.000			-16.901			-2.414
128201.000			-16.900			-2.414
128300.000			-16.899			-2.414
128400.000			-16.899			-2.414
128501.000			-16.899			-2.414
128600.000			-16.899			-2.414
128701.000			-16.899			-2.414
128802.000			-16.898			-2.414
128901.000			-16.898			-2.414
129000.000			-16.898			-2.414
129101.000			-16.898			-2.414
129200.000			-16.898			-2.414
129300.000			-16.897			-2.414
129401.000			-16.896			-2.414
129500.000			-16.897			-2.414
129601.000			-16.898			-2.414
129702.000			-16.897			-2.414
129801.000			-16.896			-2.414
129900.000			-16.895			-2.414
130001.000			-16.894			-2.413
130100.000			-16.895			-2.414
130201.000			-16.894			-2.413
130300.000			-16.894			-2.413
130400.000			-16.893			-2.413
130502.000			-16.892			-2.413
130601.000			-16.892			-2.413
130701.000			-16.893			-2.413
130801.000			-16.892			-2.413
130900.000			-16.894			-2.413
131000.000			-16.893			-2.413
131101.000			-16.892			-2.413
131200.000			-16.891			-2.413
131300.000			-16.891			-2.413
131402.000			-16.891			-2.413
131501.000			-16.891			-2.413
131601.000			-16.891			-2.413
131701.000			-16.891			-2.413
131800.000			-16.891			-2.413
131900.000			-16.890			-2.413
132001.000			-16.889			-2.413
132100.000			-16.889			-2.413
132200.000			-16.889			-2.413
132301.000			-16.888			-2.413
132401.000			-16.888			-2.413
132501.000			-16.888			-2.413
132601.000			-16.888			-2.413
132700.000			-16.887			-2.412
132800.000			-16.887			-2.412
132901.000			-16.887			-2.412
133000.000			-16.887			-2.412
133100.000			-16.886			-2.412
133201.000			-16.886			-2.412
133301.000			-16.886			-2.412
133402.000			-16.885			-2.412
133501.000			-16.885			-2.412
133600.000			-16.885			-2.412
133701.000			-16.885			-2.412
133800.000			-16.883			-2.412
133900.000			-16.883			-2.412
134001.000			-16.883			-2.412
134100.000			-16.884			-2.412
134200.000			-16.883			-2.412
134302.000			-16.882			-2.412
134401.000			-16.883			-2.412
134500.000			-16.883			-2.412
134601.000			-16.883			-2.412
134700.000			-16.882			-2.412
134800.000			-16.881			-2.412
134901.000			-16.881			-2.412
135000.000			-16.881			-2.412
135100.000			-16.881			-2.412
135202.000			-16.879			-2.411
135301.000			-16.880			-2.411
135401.000			-16.879			-2.411
135501.000			-16.878			-2.411
135600.000			-16.879			-2.411
135700.000			-16.878			-2.411
135801.000			-16.878			-2.411
135900.000			-16.879			-2.411
136000.000			-16.877			-2.411
136101.000			-16.877			-2.411
136201.000			-16.877			-2.411
136301.000			-16.877			-2.411
136401.000			-16.877			-2.411
136500.000			-16.877			-2.411
136601.000			-16.877			-2.411
136700.000			-16.876			-2.411
136800.000			-16.876			-2.411
136901.000			-16.876			-2.411
137000.000			-16.875			-2.411
137100.000			-16.875			-2.411
137202.000			-16.874			-2.411
137301.000			-16.874			-2.411
137400.000			-16.874			-2.411
137501.000			-16.873			-2.410
137600.000			-16.873			-2.410
137700.000			-16.873			-2.410
137801.000			-16.872			-2.410
137900.000			-16.872			-2.410
138000.000			-16.872			-2.410
138102.000			-16.871			-2.410
138201.000			-16.871			-2.410
138301.000			-16.871			-2.410
138401.000			-16.870			-2.410
138500.000			-16.871			-2.410
138600.000			-16.870			-2.410
138701.000			-16.869			-2.410
138800.000			-16.869			-2.410
138900.000			-16.869			-2.410
139001.000			-16.869			-2.410
139101.000			-16.868			-2.410
139201.000			-16.868			-2.410
139302.000			-16.868			-2.410
139400.000			-16.868			-2.410
139500.000			-16.867			-2.410
139601.000			-16.867			-2.410
139700.000			-16.867			-2.410
139801.000			-16.867			-2.410
139900.000			-16.866			-2.409
140000.000			-16.866			-2.409
140102.000			-16.866			-2.409
140201.000			-16.865			-2.409
140301.000			-16.865			-2.409
140401.000			-16.864			-2.409
140500.000			-16.865			-2.409
140600.000			-16.865			-2.409
140701.000			-16.865			-2.409
140800.000			-16.865			-2.409
140900.000			-16.864			-2.409
141001.000			-16.863			-2.409
141101.000			-16.862			-2.409
141201.000			-16.862			-2.409
141301.000			-16.863			-2.409
141400.000			-16.863			-2.409
141500.000			-16.862			-2.409
141601.000			-16.861			-2.409
141700.000			-16.861			-2.409
141800.000			-16.862			-2.409
141901.000			-16.861			-2.409
142001.000			-16.860			-2.409
142101.000			-16.860			-2.409
142201.000			-16.859			-2.408
142300.000			-16.858			-2.408
142400.000			-16.859			-2.408
142501.000			-16.859			-2.408
142600.000			-16.859			-2.408
142700.000			-16.859			-2.408
142801.000			-16.858			-2.408
142901.000			-16.858			-2.408
143002.000			-16.858			-2.408
143101.000			-16.858			-2.408
143200.000			-16.857			-2.408
143301.000			-16.856			-2.408
143400.000			-16.856			-2.408
143500.000			-16.856			-2.408
143601.000			-16.856			-2.408
143700.000			-16.855			-2.408
143800.000			-16.856			-2.408
143902.000			-16.856			-2.408
144001.000			-16.854			-2.408
144100.000			-16.854			-2.408
144201.000			-16.855			-2.408
144300.000			-16.853			-2.408
144400.000			-16.853			-2.408
144501.000			-16.852			-2.407
144600.000			-16.853			-2.408
144700.000			-16.853			-2.408
144802.000			-16.854			-2.408
144901.000			-16.852			-2.407
145001.000			-16.852			-2.407
145101.000			-16.851			-2.407
145200.000			-16.850			-2.407
145300.000			-16.850			-2.407
145401.000			-16.852			-2.407
145500.000			-16.851			-2.407
145600.000			-16.851			-2.407
145701.000			-16.850			-2.407
145801.000			-16.849			-2.407
145901.000			-16.849			-2.407
146001.000			-16.849			-2.407
146100.000			-16.849			-2.407
146201.000			-16.848			-2.407
146300.000			-16.847			-2.407
146400.000			-16.847			-2.407
146501.000			-16.846			-2.407
146600.000			-16.847			-2.407
146701.000			-16.848			-2.407
146802.000			-16.847			-2.407
146901.000			-16.846			-2.407
147000.000			-16.847			-2.407
147101.000			-16.846			-2.407
147200.000			-16.845			-2.406
147300.000			-16.846			-2.407
147401.000			-16.845			-2.406
147500.000			-16.844			-2.406
147600.000			-16.845			-2.406
147702.000			-16.845			-2.406
147801.000			-16.843			-2.406
147901.000			-16.844			-2.406
148001.000			-16.844			-2.406
148100.000			-16.844			-2.406
148200.000			-16.843			-2.406
148301.000			-16.841			-2.406
148400.000			-16.842			-2.406
148500.000			-16.843			-2.406
148601.000			-16.843			-2.406
148701.000			-16.841			-2.406
148801.000			-16.840			-2.406
148901.000			-16.840			-2.406
149000.000			-16.840			-2.406
149100.000			-16.840			-2.406
149201.000			-16.841			-2.406
149300.000			-16.841			-2.406
149401.000			-16.840			-2.406
149500.000			-16.841			-2.406
149601.000			-16.840			-2.406
149702.000			-16.839			-2.406
149801.000			-16.838			-2.405
149900.000			-16.838			-2.405
150001.000			-16.838			-2.405
150100.000			-16.838			-2.405
150200.000			-16.838			-2.405
150301.000			-16.837			-2.405
150400.000			-16.838			-2.405
150500.000			-16.837			-2.405
150602.000			-16.836			-2.405
150701.000			-16.836			-2.405
150801.000			-16.836			-2.405
150901.000			-16.836			-2.405
151000.000			-16.836			-2.405
151100.000			-16.836			-2.405
151201.000			-16.836			-2.405
151300.000			-16.834			-2.405
151400.000			-16.834			-2.405
151502.000			-16.834			-2.405
151601.000			-16.834			-2.405
151701.000			-16.834			-2.405
151801.000			-16.833			-2.405
151900.000			-16.834			-2.405
152000.000			-16.833			-2.405
152101.000			-16.833			-2.405
152200.000			-16.832			-2.405
152300.000			-16.832			-2.405
152401.000			-16.832			-2.405
152501.000			-16.831			-2.404
152602.000			-16.831			-2.404
152700.000			-16.831			-2.404
152800.000			-16.830			-2.404
152901.000			-16.831			-2.404
153000.000			-16.830			-2.404
153100.000			-16.830			-2.404
153201.000			-16.831			-2.404
153300.000			-16.830			-2.404
153401.000			-16.829			-2.404
153502.000			-16.828			-2.404
153601.000			-16.828			-2.404
153700.000			-16.828			-2.404
153801.000			-16.828			-2.404
153900.000			-16.828			-2.404
154000.000			-16.828			-2.404
154101.000			-16.828			-2.404
154200.000			-16.827			-2.404
154300.000			-16.827			-2.404
154402.000			-16.826			-2.404
154501.000			-16.826			-2.404
154601.000			-16.826			-2.404
154701.000			-16.826			-2.404
154800.000			-16.826			-2.404
154900.000			-16.824			-2.403
155001.000			-16.824			-2.403
155100.000			-16.825			-2.404
155200.000			-16.825			-2.404
155301.000			-16.825			-2.404
155401.000			-16.824			-2.403
155501.000			-16.824			-2.403
155601.000			-16.823			-2.403
155700.000			-16.824			-2.403
155801.000			-16.822			-2.403
155900.000			-16.821			-2.403
156000.000			-16.821			-2.403
156101.000			-16.822			-2.403
156200.000			-16.822			-2.403
156301.000			-16.822			-2.403
156402.000			-16.821			-2.403
156501.000			-16.821			-2.403
156600.000			-16.821			-2.403
156701.000			-16.822			-2.403
156800.000			-16.821			-2.403
156900.000			-16.821			-2.403
157001.000			-16.819			-2.403
157100.000			-16.820			-2.403
157200.000			-16.819			-2.403
157302.000			-16.818			-2.403
157401.000			-16.818			-2.403
157500.000			-16.819			-2.403
157601.000			-16.818			-2.403
157700.000			-16.819			-2.403
157800.000			-16.817			-2.402
157901.000			-16.817			-2.402
158000.000			-16.818			-2.403
158100.000			-16.817			-2.402
158202.000			-16.816			-2.402
158301.000			-16.816			-2.402
158401.000			-16.816			-2.402
158501.000			-16.816			-2.402
158600.000			-16.815			-2.402
158700.000			-16.814			-2.402
158801.000			-16.814			-2.402
158900.000			-16.814			-2.402
159001.000			-16.813			-2.402
159100.000			-16.812			-2.402
159201.000			-16.814			-2.402
159302.000			-16.814			-2.402
159401.000			-16.814			-2.402
159500.000			-16.813			-2.402
159601.000			-16.813			-2.402
159700.000			-16.812			-2.402
159800.000			-16.813			-2.402
159901.000			-16.811			-2.402
160000.000			-16.811			-2.402
160100.000			-16.810			-2.401
160202.000			-16.810			-2.401
160301.000			-16.811			-2.402
160400.000			-16.811			-2.402
160501.000			-16.810			-2.401
160600.000			-16.810			-2.401
160700.000			-16.810			-2.401
160801.000			-16.810			-2.401
160900.000			-16.809			-2.401
161000.000			-16.808			-2.401
161102.000			-16.809			-2.401
161201.000			-16.809			-2.401
161300.000			-16.809			-2.401
161401.000			-16.808			-2.401
161500.000			-16.809			-2.401
161600.000			-16.807			-2.401
161701.000			-16.807			-2.401
161800.000			-16.806			-2.401
161900.000			-16.805			-2.401
162002.000			-16.807			-2.401
162101.000			-16.806			-2.401
162202.000			-16.806			-2.401
162300.000			-16.805			-2.401
162400.000			-16.805			-2.401
162501.000			-16.804			-2.401
162600.000			-16.805			-2.401
162700.000			-16.805			-2.401
162801.000			-16.805			-2.401
162900.000			-16.804			-2.401
163001.000			-16.804			-2.401
163102.000			-16.803			-2.400
163200.000			-16.803			-2.400
163300.000			-16.803			-2.400
163401.000			-16.803			-2.400
163500.000			-16.802			-2.400
163600.000			-16.802			-2.400
163701.000			-16.801			-2.400
163800.000			-16.801			-2.400
163901.000			-16.800			-2.400
164002.000			-16.799			-2.400
164101.000			-16.800			-2.400
164200.000			-16.800			-2.400
164301.000			-16.799			-2.400
164400.000			-16.798			-2.400
164500.000			-16.798			-2.400
164601.000			-16.797			-2.400
164700.000			-16.798			-2.400
164800.000			-16.798			-2.400
164902.000			-16.797			-2.400
165001.000			-16.797			-2.400
165100.000			-16.797			-2.400
165201.000			-16.795			-2.399
165300.000			-16.795			-2.399
165401.000			-16.795			-2.399
165500.000			-16.794			-2.399
165600.000			-16.794			-2.399
165701.000			-16.794			-2.399
165800.000			-16.793			-2.399
165901.000			-16.793			-2.399
166002.000			-16.794			-2.399
166100.000			-16.793			-2.399
166200.000			-16.792			-2.399
166301.000			-16.791			-2.399
166400.000			-16.791			-2.399
166500.000			-16.791			-2.399
166601.000			-16.791			-2.399
166700.000			-16.790			-2.399
166800.000			-16.789			-2.398
166902.000			-16.790			-2.399
167001.000			-16.791			-2.399
167100.000			-16.790			-2.399
167201.000			-16.789			-2.398
167300.000			-16.789			-2.398
167400.000			-16.789			-2.398
167501.000			-16.789			-2.398
167600.000			-16.789			-2.398
167700.000			-16.788			-2.398
167801.000			-16.789			-2.398
167901.000			-16.788			-2.398
168001.000			-16.788			-2.398
168101.000			-16.786			-2.398
168200.000			-16.786			-2.398
168300.000			-16.786			-2.398
168401.000			-16.787			-2.398
168500.000			-16.788			-2.398
168601.000			-16.787			-2.398
168700.000			-16.786			-2.398
168800.000			-16.786			-2.398
168902.000			-16.785			-2.398
169001.000			-16.786			-2.398
169100.000			-16.785			-2.398
169201.000			-16.783			-2.398
169300.000			-16.784			-2.398
169400.000			-16.783			-2.398
169501.000			-16.784			-2.398
169600.000			-16.784			-2.398
169700.000			-16.783			-2.398
169802.000			-16.783			-2.398
169901.000			-16.783			-2.398
170001.000			-16.783			-2.398
170101.000			-16.782			-2.397
170200.000			-16.782			-2.397
170300.000			-16.782			-2.397
170401.000			-16.781			-2.397
170500.000			-16.782			-2.397
170600.000			-16.782			-2.397
170701.000			-16.781			-2.397
170801.000			-16.780			-2.397
170901.000			-16.780			-2.397
171001.000			-16.780			-2.397
171100.000			-16.780			-2.397
171200.000			-16.779			-2.397
171301.000			-16.779			-2.397
171400.000			-16.778			-2.397
171500.000			-16.778			-2.397
171601.000			-16.778			-2.397
171701.000			-16.779			-2.397
171802.000			-16.778			-2.397
171901.000			-16.777			-2.397
172000.000			-16.777			-2.397
172101.000			-16.776			-2.397
172200.000			-16.777			-2.397
172300.000			-16.777			-2.397
172401.000			-16.777			-2.397
172500.000			-16.777			-2.397
172600.000			-16.775			-2.396
172702.000			-16.776			-2.397
172801.000			-16.776			-2.397
172901.000			-16.775			-2.396
173001.000			-16.774			-2.396
173100.000			-16.775			-2.396
173200.000			-16.776			-2.397
173301.000			-16.775			-2.396
173400.000			-16.774			-2.396
173500.000			-16.774			-2.396
173601.000			-16.775			-2.396
173701.000			-16.775			-2.396
173801.000			-16.775			-2.396
173901.000			-16.774			-2.396
174000.000			-16.774			-2.396
174100.000			-16.775			-2.396
174201.000			-16.775			-2.396
174300.000			-16.773			-2.396
174400.000			-16.772			-2.396
174501.000			-16.773			-2.396
174600.000			-16.773			-2.396
174701.000			-16.773			-2.396
174802.000			-16.772			-2.396
174900.000			-16.772			-2.396
175001.000			-16.772			-2.396
175100.000			-16.773			-2.396
175200.000			-16.773			-2.396
175301.000			-16.773			-2.396
175400.000			-16.773			-2.396
175500.000			-16.773			-2.396
175602.000			-16.773			-2.396
175701.000			-16.772			-2.396
175801.000			-16.772			-2.396
175901.000			-16.772			-2.396
176000.000			-16.771			-2.396
176100.000			-16.771			-2.396
176201.000			-16.771			-2.396
176300.000			-16.771			-2.396
176400.000			-16.771			-2.396
176501.000			-16.770			-2.396
176601.000			-16.771			-2.396
176701.000			-16.770			-2.396
176802.000			-16.769			-2.396
176900.000			-16.770			-2.396
177000.000			-16.769			-2.396
177101.000			-16.768			-2.395
177200.000			-16.769			-2.396
177300.000			-16.768			-2.395
177401.000			-16.768			-2.395
177500.000			-16.769			-2.396
177601.000			-16.767			-2.395
177702.000			-16.767			-2.395
177801.000			-16.767			-2.395
177900.000			-16.768			-2.395
178001.000			-16.768			-2.395
178100.000			-16.767			-2.395
178201.000			-16.767			-2.395
178300.000			-16.767			-2.395
178400.000			-16.766			-2.395
178501.000			-16.765			-2.395
178601.000			-16.766			-2.395
178701.000			-16.766			-2.395
178802.000			-16.766			-2.395
178900.000			-16.765			-2.395
179000.000			-16.764			-2.395
179101.000			-16.764			-2.395
179200.000			-16.765			-2.395
179300.000			-16.765			-2.395
179401.000			-16.764			-2.395
179500.000			-16.764			-2.395
179600.000			-16.764			-2.395
179702.000			-16.764			-2.395
179801.000			-16.764			-2.395
179900.000			-16.763			-2.395
180001.000			-16.765			-2.395
180100.000			-16.764			-2.395
180200.000			-16.763			-2.395
180301.000			-16.763			-2.395
180400.000			-16.762			-2.395
180500.000			-16.762			-2.395
180602.000			-16.762			-2.395
180701.000			-16.763			-2.395
180801.000			-16.763			-2.395
180901.000			-16.763			-2.395
181000.000			-16.762			-2.395
181100.000			-16.762			-2.395
181201.000			-16.762			-2.395
181300.000			-16.762			-2.395
181401.000			-16.762			-2.395
181501.000			-16.761			-2.394
181601.000			-16.761			-2.394
181702.000			-16.760			-2.394
181800.000			-16.761			-2.394
181900.000			-16.760			-2.394
182001.000			-16.761			-2.394
182100.000			-16.760			-2.394
182200.000			-16.759			-2.394
182301.000			-16.761			-2.394
182400.000			-16.761			-2.394
182501.000			-16.759			-2.394
182602.000			-16.759			-2.394
182701.000			-16.760			-2.394
182800.000			-16.759			-2.394
182901.000			-16.759			-2.394
183000.000			-16.760			-2.394
183100.000			-16.760			-2.394
183201.000			-16.758			-2.394
183300.000			-16.757			-2.394
183400.000			-16.758			-2.394
183502.000			-16.758			-2.394
183601.000			-16.757			-2.394
183700.000			-16.757			-2.394
183801.000			-16.757			-2.394
183900.000			-16.756			-2.394
184000.000			-16.756			-2.394
184101.000			-16.756			-2.394
184200.000			-16.756			-2.394
184300.000			-16.756			-2.394
184402.000			-16.756			-2.394
184501.000			-16.756			-2.394
184602.000			-16.755			-2.394
184700.000			-16.755			-2.394
184800.000			-16.756			-2.394
184901.000			-16.755			-2.394
185000.000			-16.754			-2.393
185100.000			-16.755			-2.394
185201.000			-16.755			-2.394
185300.000			-16.755			-2.394
185401.000			-16.753			-2.393
185502.000			-16.754			-2.393
185601.000			-16.753			-2.393
185700.000			-16.752			-2.393
185801.000			-16.752			-2.393
185900.000			-16.753			-2.393
186000.000			-16.752			-2.393
186101.000			-16.752			-2.393
186200.000			-16.751			-2.393
186300.000			-16.751			-2.393
186402.000			-16.750			-2.393
186501.000			-16.750			-2.393
186601.000			-16.750			-2.393
186701.000			-16.751			-2.393
186800.000			-16.750			-2.393
186900.000			-16.750			-2.393
187001.000			-16.749			-2.393
187100.000			-16.750			-2.393
187200.000			-16.750			-2.393
187301.000			-16.749			-2.393
187401.000			-16.749			-2.393
187501.000			-16.748			-2.393
187601.000			-16.748			-2.393
187700.000			-16.749			-2.393
187801.000			-16.749			-2.393
187900.000			-16.748			-2.393
188000.000			-16.747			-2.392
188101.000			-16.746			-2.392
188200.000			-16.747			-2.392
188300.000			-16.747			-2.392
188402.000			-16.747			-2.392
188501.000			-16.747			-2.392
188600.000			-16.746			-2.392
188701.000			-16.747			-2.392
188800.000			-16.746			-2.392
188900.000			-16.746			-2.392
189001.000			-16.745			-2.392
189100.000			-16.745			-2.392
189200.000			-16.745			-2.392
189301.000			-16.744			-2.392
189401.000			-16.745			-2.392
189501.000			-16.744			-2.392
189601.000			-16.744			-2.392
189700.000			-16.744			-2.392
189800.000			-16.744			-2.392
189901.000			-16.744			-2.392
190000.000			-16.744			-2.392
190100.000			-16.744			-2.392
190201.000			-16.743			-2.392
190301.000			-16.743			-2.392
190401.000			-16.742			-2.392
190502.000			-16.743			-2.392
190600.000			-16.743			-2.392
190700.000			-16.741			-2.392
190801.000			-16.741			-2.392
190900.000			-16.741			-2.392
191001.000			-16.741			-2.392
191100.000			-16.742			-2.392
191200.000			-16.740			-2.391
191302.000			-16.739			-2.391
191401.000			-16.740			-2.391
191500.000			-16.740			-2.391
191601.000			-16.740			-2.391
191700.000			-16.739			-2.391
191800.000			-16.740			-2.391
191901.000			-16.740			-2.391
192000.000			-16.739			-2.391
192100.000			-16.739			-2.391
192202.000			-16.739			-2.391
192301.000			-16.738			-2.391
192401.000			-16.738			-2.391
192501.000			-16.737			-2.391
192600.000			-16.737			-2.391
192700.000			-16.737			-2.391
192801.000			-16.737			-2.391
192900.000			-16.737			-2.391
193000.000			-16.736			-2.391
193101.000			-16.736			-2.391
193201.000			-16.736			-2.391
193301.000			-16.735			-2.391
193401.000			-16.735			-2.391
193500.000			-16.735			-2.391
193600.000			-16.734			-2.391
193701.000			-16.735			-2.391
193800.000			-16.736			-2.391
193900.000			-16.735			-2.391
194001.000			-16.734			-2.391
194101.000			-16.734			-2.391
194202.000			-16.734			-2.391
194301.000			-16.734			-2.391
194400.000			-16.733			-2.390
194501.000			-16.732			-2.390
194600.000			-16.732			-2.390
194700.000			-16.732			-2.390
194801.000			-16.732			-2.390
194900.000			-16.732			-2.390
195000.000			-16.732			-2.390
195102.000			-16.731			-2.390
195201.000			-16.732			-2.390
195301.000			-16.732			-2.390
195401.000			-16.732			-2.390
195500.000			-16.731			-2.390
195600.000			-16.732			-2.390
195701.000			-16.731			-2.390
195800.000			-16.730			-2.390
195900.000			-16.730			-2.390
196001.000			-16.730			-2.390
196101.000			-16.730			-2.390
196201.000			-16.730			-2.390
196301.000			-16.730			-2.390
196400.000			-16.730			-2.390
196500.000			-16.729			-2.390
196601.000			-16.729			-2.390
196700.000			-16.728			-2.390
196800.000			-16.729			-2.390
196901.000			-16.730			-2.390
197000.000			-16.728			-2.390
197101.000			-16.727			-2.390
197202.000			-16.728			-2.390
197300.000			-16.728			-2.390
197401.000			-16.727			-2.390
197500.000			-16.727			-2.390
197600.000			-16.728			-2.390
197701.000			-16.727			-2.390
197800.000			-16.728			-2.390
197900.000			-16.727			-2.390
198001.000			-16.727			-2.390
198101.000			-16.727			-2.390
198201.000			-16.727			-2.390
198301.000			-16.726			-2.389
198400.000			-16.726			-2.389
198500.000			-16.725			-2.389
198601.000			-16.726			-2.389
198700.000			-16.725			-2.389
198800.000			-16.725			-2.389
198901.000			-16.725			-2.389
199001.000			-16.725			-2.389
199101.000			-16.725			-2.389
199202.000			-16.725			-2.389
199300.000			-16.724			-2.389
199400.000			-16.724			-2.389
199501.000			-16.724			-2.389
199600.000			-16.723			-2.389
199700.000			-16.723			-2.389
199801.000			-16.723			-2.389
199900.000			-16.723			-2.389
200001.000			-16.723			-2.389
200102.000			-16.722			-2.389
200201.000			-16.722			-2.389
200300.000			-16.722			-2.389
200401.000			-16.723			-2.389
200500.000			-16.723			-2.389
200601.000			-16.722			-2.389
200700.000			-16.722			-2.389
200800.000			-16.721			-2.389
200902.000			-16.720			-2.389
201001.000			-16.720			-2.389
201101.000			-16.720			-2.389
201201.000			-16.720			-2.389
201300.000			-16.721			-2.389
201400.000			-16.720			-2.389
201501.000			-16.720			-2.389
201600.000			-16.720			-2.389
201700.000			-16.719			-2.388
201802.000			-16.719			-2.388
201901.000			-16.718			-2.388
202001.000			-16.718			-2.388
202101.000			-16.718			-2.388
202200.000			-16.719			-2.388
202300.000			-16.719			-2.388
202401.000			-16.718			-2.388
202500.000			-16.717			-2.388
202600.000			-16.717			-2.388
202702.000			-16.717			-2.388
202801.000			-16.717			-2.388
202901.000			-16.716			-2.388
203001.000			-16.717			-2.388
203100.000			-16.718			-2.388
203200.000			-16.718			-2.388
203301.000			-16.717			-2.388
203400.000			-16.716			-2.388
203500.000			-16.714			-2.388
203601.000			-16.715			-2.388
203701.000			-16.715			-2.388
203802.000			-16.715			-2.388
203900.000			-16.715			-2.388
204000.000			-16.715			-2.388
204101.000			-16.715			-2.388
204200.000			-16.715			-2.388
204300.000			-16.714			-2.388
204401.000			-16.714			-2.388
204500.000			-16.712			-2.387
204601.000			-16.713			-2.388
204702.000			-16.713			-2.388
204800.000			-16.713			-2.388
204900.000			-16.712			-2.387
205001.000			-16.712			-2.387
205100.000			-16.712			-2.387
205200.000			-16.712			-2.387
205301.000			-16.712			-2.387
205400.000			-16.711			-2.387
205501.000			-16.711			-2.387
205602.000			-16.711			-2.387
205700.000			-16.712			-2.387
205800.000			-16.712			-2.387
205901.000			-16.711			-2.387
206000.000			-16.711			-2.387
206100.000			-16.711			-2.387
206201.000			-16.710			-2.387
206300.000			-16.710			-2.387
206401.000			-16.710			-2.387
206502.000			-16.709			-2.387
206600.000			-16.708			-2.387
206700.000			-16.708			-2.387
206801.000			-16.709			-2.387
206900.000			-16.709			-2.387
207001.000			-16.709			-2.387
207100.000			-16.708			-2.387
207200.000			-16.708			-2.387
207302.000			-16.707			-2.387
207401.000			-16.708			-2.387
207501.000			-16.708			-2.387
207601.000			-16.709			-2.387
207700.000			-16.709			-2.387
207800.000			-16.707			-2.387
207901.000			-16.708			-2.387
208000.000			-16.707			-2.387
208100.000			-16.706			-2.387
208201.000			-16.707			-2.387
208301.000			-16.707			-2.387
208401.000			-16.706			-2.387
208501.000			-16.705			-2.386
208600.000			-16.705			-2.386
208700.000			-16.704			-2.386
208801.000			-16.704			-2.386
208900.000			-16.706			-2.387
209000.000			-16.706			-2.387
209101.000			-16.705			-2.386
209201.000			-16.704			-2.386
209301.000			-16.704			-2.386
209401.000			-16.704			-2.386
209500.000			-16.704			-2.386
209600.000			-16.704			-2.386
209701.000			-16.703			-2.386
209800.000			-16.703			-2.386
209900.000			-16.703			-2.386
210001.000			-16.702			-2.386
210101.000			-16.702			-2.386
210202.000			-16.701			-2.386
210301.000			-16.701			-2.386
210400.000			-16.701			-2.386
210501.000			-16.701			-2.386
210600.000			-16.702			-2.386
210700.000			-16.702			-2.386
210801.000			-16.702			-2.386
210900.000			-16.702			-2.386
211001.000			-16.701			-2.386
211102.000			-16.700			-2.386
211201.000			-16.700			-2.386
211300.000			-16.699			-2.386
211401.000			-16.699			-2.386
211500.000			-16.701			-2.386
211600.000			-16.700			-2.386
211701.000			-16.699			-2.386
211800.000			-16.699			-2.386
211900.000			-16.699			-2.386
212002.000			-16.700			-2.386
212101.000			-16.700			-2.386
212200.000			-16.699			-2.386
212301.000			-16.698			-2.385
212400.000			-16.697			-2.385
212500.000			-16.697			-2.385
212601.000			-16.696			-2.385
212700.000			-16.697			-2.385
212800.000			-16.697			-2.385
212902.000			-16.696			-2.385
213001.000			-16.696			-2.385
213101.000			-16.696			-2.385
213201.000			-16.697			-2.385
213300.000			-16.697			-2.385
213401.000			-16.697			-2.385
213500.000			-16.696			-2.385
213600.000			-16.696			-2.385
213701.000			-16.695			-2.385
213800.000			-16.696			-2.385
213901.000			-16.695			-2.385
214002.000			-16.694			-2.385
214100.000			-16.694			-2.385
214200.000			-16.694			-2.385
214301.000			-16.695			-2.385
214400.000			-16.694			-2.385
214500.000			-16.694			-2.385
214601.000			-16.695			-2.385
214700.000			-16.694			-2.385
214801.000			-16.693			-2.385
214902.000			-16.692			-2.385
215001.000			-16.692			-2.385
215100.000			-16.692			-2.385
215201.000			-16.693			-2.385
215300.000			-16.692			-2.385
215400.000			-16.692			-2.385
215501.000			-16.692			-2.385
215600.000			-16.692			-2.385
215700.000			-16.692			-2.385
215802.000			-16.691			-2.384
215901.000			-16.692			-2.385
216000.000			-16.691			-2.384
216101.000			-16.691			-2.384
216200.000			-16.691			-2.384
216300.000			-16.691			-2.384
216401.000			-16.691			-2.384
216500.000			-16.691			-2.384
216601.000			-16.690			-2.384
216701.000			-16.690			-2.384
216801.000			-16.689			-2.384
216901.000			-16.689			-2.384
217000.000			-16.689			-2.384
217100.000			-16.689			-2.384
217201.000			-16.688			-2.384
217300.000			-16.688			-2.384
217400.000			-16.689			-2.384
217501.000			-16.689			-2.384
217600.000			-16.688			-2.384
217701.000			-16.688			-2.384
217802.000			-16.687			-2.384
217900.000			-16.687			-2.384
218000.000			-16.687			-2.384
218101.000			-16.688			-2.384
218200.000			-16.687			-2.384
218300.000			-16.686			-2.384
218401.000			-16.686			-2.384
218500.000			-16.686			-2.384
218601.000			-16.685			-2.384
218702.000			-16.684			-2.383
218801.000			-16.685			-2.384
218900.000			-16.684			-2.383
219001.000			-16.684			-2.383
219100.000			-16.685			-2.384
219200.000			-16.685			-2.384
219301.000			-16.684			-2.383
219400.000			-16.684			-2.383
219500.000			-16.685			-2.384
219602.000			-16.685			-2.384
219701.000			-16.684			-2.383
219801.000			-16.684			-2.383
219900.000			-16.684			-2.383
220000.000			-16.683			-2.383
220101.000			-16.683			-2.383
220200.000			-16.682			-2.383
220300.000			-16.682			-2.383
220401.000			-16.681			-2.383
220501.000			-16.682			-2.383
220601.000			-16.682			-2.383
220702.000			-16.681			-2.383
220800.000			-16.682			-2.383
220900.000			-16.680			-2.383
221001.000			-16.681			-2.383
221100.000			-16.681			-2.383
221200.000			-16.681			-2.383
221301.000			-16.681			-2.383
221401.000			-16.680			-2.383
221501.000			-16.679			-2.383
221602.000			-16.680			-2.383
221700.000			-16.679			-2.383
221800.000			-16.680			-2.383
221901.000			-16.680			-2.383
222000.000			-16.679			-2.383
222100.000			-16.678			-2.383
222201.000			-16.679			-2.383
222300.000			-16.679			-2.383
222401.000			-16.678			-2.383
222502.000			-16.677			-2.382
222601.000			-16.677			-2.382
222700.000			-16.676			-2.382
222801.000			-16.677			-2.382
222900.000			-16.677			-2.382
223001.000			-16.677			-2.382
223100.000			-16.677			-2.382
223200.000			-16.676			-2.382
223301.000			-16.676			-2.382
223401.000			-16.676			-2.382
223501.000			-16.677			-2.382
223601.000			-16.676			-2.382
223700.000			-16.676			-2.382
223800.000			-16.676			-2.382
223901.000			-16.675			-2.382
224000.000			-16.675			-2.382
224100.000			-16.675			-2.382
224201.000			-16.676			-2.382
224301.000			-16.675			-2.382
224401.000			-16.675			-2.382
224502.000			-16.675			-2.382
224600.000			-16.675			-2.382
224700.000			-16.675			-2.382
224801.000			-16.674			-2.382
224900.000			-16.674			-2.382
225000.000			-16.673			-2.382
225101.000			-16.674			-2.382
225201.000			-16.674			-2.382
225301.000			-16.673			-2.382
225402.000			-16.673			-2.382
225500.000			-16.673			-2.382
225600.000			-16.673			-2.382
225701.000			-16.672			-2.382
225800.000			-16.673			-2.382
225900.000			-16.673			-2.382
226001.000			-16.671			-2.382
226100.000			-16.671			-2.382
226202.000			-16.672			-2.382
226301.000			-16.672			-2.382
226400.000			-16.672			-2.382
226501.000			-16.672			-2.382
226600.000			-16.671			-2.382
226700.000			-16.670			-2.381
226801.000			-16.669			-2.381
226900.000			-16.669			-2.381
227000.000			-16.670			-2.381
227101.000			-16.670			-2.381
227201.000			-16.670			-2.381
227301.000			-16.669			-2.381
227401.000			-16.669			-2.381
227500.000			-16.669			-2.381
227600.000			-16.668			-2.381
227701.000			-16.668			-2.381
227800.000			-16.668			-2.381
227900.000			-16.669			-2.381
228001.000			-16.668			-2.381
228101.000			-16.668			-2.381
228201.000			-16.668			-2.381
228302.000			-16.668			-2.381
228400.000			-16.668			-2.381
228500.000			-16.668			-2.381
228601.000			-16.667			-2.381
228700.000			-16.666			-2.381
228800.000			-16.667			-2.381
228901.000			-16.667			-2.381
229000.000			-16.666			-2.381
229101.000			-16.666			-2.381
229202.000			-16.665			-2.381
229301.000			-16.666			-2.381
229401.000			-16.666			-2.381
229500.000			-16.665			-2.381
229600.000			-16.665			-2.381
229701.000			-16.666			-2.381
229800.000			-16.665			-2.381
229900.000			-16.665			-2.381
230001.000			-16.665			-2.381
230101.000			-16.665			-2.381
230201.000			-16.664			-2.381
230301.000			-16.664			-2.381
230400.000			-16.663			-2.380
230500.000			-16.664			-2.381
230601.000			-16.664			-2.381
230700.000			-16.663			-2.380
230800.000			-16.663			-2.380
230901.000			-16.662			-2.380
231001.000			-16.663			-2.380
231101.000			-16.662			-2.380
231202.000			-16.662			-2.380
231300.000			-16.663			-2.380
231400.000			-16.663			-2.380
231501.000			-16.662			-2.380
231600.000			-16.662			-2.380
231700.000			-16.662			-2.380
231801.000			-16.661			-2.380
231901.000			-16.660			-2.380
232001.000			-16.660			-2.380
232102.000			-16.660			-2.380
232200.000			-16.661			-2.380
232300.000			-16.661			-2.380
232401.000			-16.660			-2.380
232500.000			-16.660			-2.380
232601.000			-16.659			-2.380
232700.000			-16.658			-2.380
232800.000			-16.658			-2.380
232902.000			-16.658			-2.380
233001.000			-16.659			-2.380
233101.000			-16.659			-2.380
233201.000			-16.659			-2.380
233300.000			-16.658			-2.380
233400.000			-16.658			-2.380
233501.000			-16.658			-2.380
233600.000			-16.658			-2.380
233700.000			-16.657			-2.380
233801.000			-16.657			-2.380
233901.000			-16.657			-2.380
234001.000			-16.657			-2.380
234101.000			-16.657			-2.380
234200.000			-16.658			-2.380
234300.000			-16.657			-2.380
234401.000			-16.655			-2.379
234500.000			-16.655			-2.379
234600.000			-16.656			-2.379
234701.000			-16.656			-2.379
234801.000			-16.656			-2.379
234901.000			-16.655			-2.379
235002.000			-16.655			-2.379
235100.000			-16.655			-2.379
235200.000			-16.654			-2.379
235301.000			-16.654			-2.379
235400.000			-16.654			-2.379
235500.000			-16.653			-2.379
235601.000			-16.653			-2.379
235700.000			-16.653			-2.379
235802.000			-16.653			-2.379
235901.000			-16.652			-2.379
236000.000			-16.651			-2.379
236101.000			-16.653			-2.379
236200.000			-16.651			-2.379
236300.000			-16.651			-2.379
236401.000			-16.651			-2.379
236500.000			-16.651			-2.379
236600.000			-16.650			-2.379
236702.000			-16.650			-2.379
236801.000			-16.650			-2.379
236901.000			-16.649			-2.378
237001.000			-16.650			-2.379
237100.000			-16.649			-2.378
237200.000			-16.649			-2.378
237301.000			-16.649			-2.378
237400.000			-16.649			-2.378
237500.000			-16.649			-2.378
237601.000			-16.648			-2.378
237701.000			-16.648			-2.378
237801.000			-16.648			-2.378
237901.000			-16.647			-2.378
238000.000			-16.646			-2.378
238100.000			-16.647			-2.378
238201.000			-16.646			-2.378
238300.000			-16.646			-2.378
238400.000			-16.647			-2.378
238501.000			-16.645			-2.378
238601.000			-16.644			-2.378
238701.000			-16.645			-2.378
238802.000			-16.646			-2.378
238900.000			-16.646			-2.378
239001.000			-16.646			-2.378
239100.000			-16.645			-2.378
239200.000			-16.645			-2.378
239301.000			-16.645			-2.378
239400.000			-16.645			-2.378
239500.000			-16.644			-2.378
239602.000			-16.644			-2.378
239701.000			-16.645			-2.378
239801.000			-16.644			-2.378
239901.000			-16.644			-2.378
240000.000			-16.644			-2.378
240100.000			-16.644			-2.378
240201.000			-16.644			-2.378
240300.000			-16.644			-2.378
240400.000			-16.643			-2.378
240501.000			-16.643			-2.378
240601.000			-16.643			-2.378
240701.000			-16.643			-2.378
240801.000			-16.642			-2.377
240900.000			-16.641			-2.377
241000.000			-16.642			-2.377
241101.000			-16.641			-2.377
241200.000			-16.643			-2.378
241300.000			-16.642			-2.377
241401.000			-16.642			-2.377
241501.000			-16.641			-2.377
241601.000			-16.642			-2.377
241701.000			-16.642			-2.377
241800.000			-16.642			-2.377
241900.000			-16.641			-2.377
242001.000			-16.640			-2.377
242100.000			-16.640			-2.377
242201.000			-16.640			-2.377
242300.000			-16.640			-2.377
242401.000			-16.640			-2.377
242502.000			-16.640			-2.377
242601.000			-16.641			-2.377
242700.000			-16.639			-2.377
242801.000			-16.639			-2.377
242900.000			-16.637			-2.377
243000.000			-16.637			-2.377
243101.000			-16.637			-2.377
243200.000			-16.637			-2.377
243300.000			-16.638			-2.377
243402.000			-16.638			-2.377
243501.000			-16.637			-2.377
243600.000			-16.637			-2.377
243701.000			-16.636			-2.377
243800.000			-16.636			-2.377
243900.000			-16.636			-2.377
244001.000			-16.635			-2.376
244100.000			-16.635			-2.376
244200.000			-16.635			-2.376
244302.000			-16.635			-2.376
244401.000			-16.634			-2.376
244501.000			-16.635			-2.376
244601.000			-16.635			-2.376
244700.000			-16.635			-2.376
244800.000			-16.634			-2.376
244901.000			-16.634			-2.376
245000.000			-16.634			-2.376
245100.000			-16.633			-2.376
245201.000			-16.633			-2.376
245301.000			-16.632			-2.376
245402.000			-16.633			-2.376
245500.000			-16.634			-2.376
245600.000			-16.633			-2.376
245701.000			-16.632			-2.376
245800.000			-16.632			-2.376
245900.000			-16.632			-2.376
246001.000			-16.631			-2.376
246100.000			-16.632			-2.376
246201.000			-16.632			-2.376
246302.000			-16.632			-2.376
246400.000			-16.632			-2.376
246500.000			-16.631			-2.376
246601.000			-16.630			-2.376
246700.000			-16.630			-2.376
246800.000			-16.630			-2.376
246901.000			-16.630			-2.376
247000.000			-16.631			-2.376
247101.000			-16.631			-2.376
247202.000			-16.631			-2.376
247301.000			-16.631			-2.376
247400.000			-16.630			-2.376
247501.000			-16.630			-2.376
247600.000			-16.631			-2.376
247700.000			-16.629			-2.376
247801.000			-16.629			-2.376
247900.000			-16.629			-2.376
248001.000			-16.629			-2.376
248102.000			-16.629			-2.376
248201.000			-16.629			-2.376
248300.000			-16.628			-2.375
248401.000			-16.629			-2.376
248500.000			-16.627			-2.375
248601.000			-16.628			-2.375
248700.000			-16.628			-2.375
248800.000			-16.627			-2.375
248901.000			-16.628			-2.375
249001.000			-16.628			-2.375
249101.000			-16.628			-2.375
249202.000			-16.626			-2.375
249300.000			-16.627			-2.375
249400.000			-16.627			-2.375
249501.000			-16.628			-2.375
249600.000			-16.628			-2.375
249700.000			-16.628			-2.375
249801.000			-16.627			-2.375
249900.000			-16.628			-2.375
250001.000			-16.628			-2.375
250102.000			-16.627			-2.375
250201.000			-16.626			-2.375
250300.000			-16.627			-2.375
250401.000			-16.626			-2.375
250500.000			-16.626			-2.375
250600.000			-16.625			-2.375
250701.000			-16.626			-2.375
250800.000			-16.625			-2.375
250901.000			-16.625			-2.375
251002.000			-16.625			-2.375
251101.000			-16.625			-2.375
251200.000			-16.625			-2.375
251301.000			-16.625			-2.375
251400.000			-16.625			-2.375
251500.000			-16.624			-2.375
251601.000			-16.624			-2.375
251700.000			-16.624			-2.375
251802.000			-16.624			-2.375
251901.000			-16.623			-2.375
252001.000			-16.623			-2.375
252101.000			-16.623			-2.375
252200.000			-16.623			-2.375
252300.000			-16.622			-2.375
252401.000			-16.621			-2.374
252500.000			-16.622			-2.375
252600.000			-16.622			-2.375
252701.000			-16.622			-2.375
252801.000			-16.622			-2.375
252901.000			-16.621			-2.374
253001.000			-16.621			-2.374
253100.000			-16.621			-2.374
253200.000			-16.621			-2.374
253301.000			-16.621			-2.374
253400.000			-16.620			-2.374
253500.000			-16.620			-2.374
253601.000			-16.620			-2.374
253701.000			-16.620			-2.374
253801.000			-16.619			-2.374
253901.000			-16.619			-2.374
254000.000			-16.620			-2.374
254100.000			-16.620			-2.374
254201.000			-16.619			-2.374
254300.000			-16.618			-2.374
254400.000			-16.619			-2.374
254501.000			-16.619			-2.374
254601.000			-16.619			-2.374
254701.000			-16.620			-2.374
254802.000			-16.619			-2.374
254900.000			-16.619			-2.374
255001.000			-16.618			-2.374
255100.000			-16.618			-2.374
255200.000			-16.618			-2.374
255301.000			-16.618			-2.374
255400.000			-16.618			-2.374
255500.000			-16.618			-2.374
255602.000			-16.618			-2.374
255701.000			-16.618			-2.374
255800.000			-16.618			-2.374
255901.000			-16.618			-2.374
256000.000			-16.617			-2.374
256100.000			-16.618			-2.374
256201.000			-16.618			-2.374
256300.000			-16.619			-2.374
256400.000			-16.618			-2.374
256502.000			-16.617			-2.374
256601.000			-16.616			-2.374
256701.000			-16.617			-2.374
256801.000			-16.617			-2.374
256900.000			-16.617			-2.374
257000.000			-16.616			-2.374
257101.000			-16.616			-2.374
257200.000			-16.617			-2.374
257300.000			-16.618			-2.374
257401.000			-16.617			-2.374
257501.000			-16.617			-2.374
257601.000			-16.617			-2.374
257701.000			-16.616			-2.374
257800.000			-16.615			-2.374
257900.000			-16.614			-2.373
258001.000			-16.615			-2.374
258100.000			-16.614			-2.373
258201.000			-16.614			-2.373
258300.000			-16.614			-2.373
258400.000			-16.614			-2.373
258502.000			-16.613			-2.373
258601.000			-16.613			-2.373
258700.000			-16.614			-2.373
258801.000			-16.614			-2.373
258900.000			-16.613			-2.373
259000.000			-16.612			-2.373
259101.000			-16.612			-2.373
259200.000			-16.612			-2.373
259300.000			-16.612			-2.373
259402.000			-16.613			-2.373
259501.000			-16.613			-2.373
259601.000			-16.612			-2.373
259701.000			-16.611			-2.373
259800.000			-16.612			-2.373
259900.000			-16.612			-2.373
260001.000			-16.611			-2.373
260100.000			-16.610			-2.373
260200.000			-16.611			-2.373
260302.000			-16.610			-2.373
260401.000			-16.610			-2.373
260501.000			-16.610			-2.373
260601.000			-16.610			-2.373
260700.000			-16.610			-2.373
260800.000			-16.609			-2.373
260901.000			-16.609			-2.373
261000.000			-16.610			-2.373
261100.000			-16.609			-2.373
261201.000			-16.608			-2.373
261301.000			-16.609			-2.373
261402.000			-16.609			-2.373
261500.000			-16.609			-2.373
261600.000			-16.609			-2.373
261701.000			-16.609			-2.373
261800.000			-16.608			-2.373
261900.000			-16.608			-2.373
262001.000			-16.608			-2.373
262100.000			-16.607			-2.372
262201.000			-16.607			-2.372
262302.000			-16.606			-2.372
262401.000			-16.606			-2.372
262500.000			-16.606			-2.372
262601.000			-16.606			-2.372
262700.000			-16.606			-2.372
262800.000			-16.607			-2.372
262901.000			-16.606			-2.372
263000.000			-16.606			-2.372
263100.000			-16.606			-2.372
263202.000			-16.605			-2.372
263301.000			-16.605			-2.372
263400.000			-16.605			-2.372
263501.000			-16.605			-2.372
263600.000			-16.604			-2.372
263700.000			-16.604			-2.372
263801.000			-16.603			-2.372
263900.000			-16.604			-2.372
264000.000			-16.605			-2.372
264102.000			-16.605			-2.372
264201.000			-16.606			-2.372
264300.000			-16.605			-2.372
264401.000			-16.605			-2.372
264500.000			-16.604			-2.372
264601.000			-16.604			-2.372
264700.000			-16.605			-2.372
264800.000			-16.604			-2.372
264901.000			-16.602			-2.372
265001.000			-16.602			-2.372
265101.000			-16.604			-2.372
265202.000			-16.603			-2.372
265300.000			-16.603			-2.372
265400.000			-16.603			-2.372
265501.000			-16.602			-2.372
265600.000			-16.603			-2.372
265700.000			-16.604			-2.372
265801.000			-16.604			-2.372
265900.000			-16.603			-2.372
266001.000			-16.602			-2.372
266102.000			-16.603			-2.372
266200.000			-16.602			-2.372
266300.000			-16.602			-2.372
266401.000			-16.602			-2.372
266500.000			-16.602			-2.372
266600.000			-16.602			-2.372
266701.000			-16.601			-2.372
266800.000			-16.600			-2.371
266901.000			-16.601			-2.372
267002.000			-16.601			-2.372
267100.000			-16.600			-2.371
267200.000			-16.599			-2.371
267301.000			-16.600			-2.371
267400.000			-16.600			-2.371
267500.000			-16.600			-2.371
267601.000			-16.599			-2.371
267700.000			-16.600			-2.371
267801.000			-16.601			-2.372
267901.000			-16.600			-2.371
268001.000			-16.600			-2.371
268101.000			-16.599			-2.371
268200.000			-16.600			-2.371
268300.000			-16.599			-2.371
268401.000			-16.598			-2.371
268500.000			-16.599			-2.371
268600.000			-16.598			-2.371
268701.000			-16.598			-2.371
268801.000			-16.599			-2.371
268901.000			-16.598			-2.371
269002.000			-16.597			-2.371
269100.000			-16.597			-2.371
269200.000			-16.597			-2.371
269301.000			-16.598			-2.371
269400.000			-16.598			-2.371
269500.000			-16.598			-2.371
269601.000			-16.598			-2.371
269700.000			-16.597			-2.371
269800.000			-16.597			-2.371
269902.000			-16.596			-2.371
270001.000			-16.596			-2.371
270100.000			-16.597			-2.371
270201.000			-16.597			-2.371
270300.000			-16.597			-2.371
270400.000			-16.597			-2.371
270501.000			-16.596			-2.371
270600.000			-16.595			-2.371
270700.000			-16.596			-2.371
270802.000			-16.596			-2.371
270901.000			-16.596			-2.371
271002.000			-16.594			-2.371
271100.000			-16.594			-2.371
271200.000			-16.595			-2.371
271301.000			-16.594			-2.371
271400.000			-16.594			-2.371
271500.000			-16.595			-2.371
271601.000			-16.595			-2.371
271700.000			-16.595			-2.371
271801.000			-16.594			-2.371
271902.000			-16.593			-2.370
272000.000			-16.593			-2.370
272100.000			-16.593			-2.370
272201.000			-16.594			-2.371
272300.000			-16.593			-2.370
272400.000			-16.593			-2.370
272501.000			-16.591			-2.370
272600.000			-16.591			-2.370
272701.000			-16.592			-2.370
272802.000			-16.592			-2.370
272901.000			-16.592			-2.370
273000.000			-16.591			-2.370
273101.000			-16.591			-2.370
273200.000			-16.591			-2.370
273300.000			-16.590			-2.370
273401.000			-16.590			-2.370
273500.000			-16.591			-2.370
273600.000			-16.591			-2.370
273702.000			-16.590			-2.370
273801.000			-16.589			-2.370
273900.000			-16.589			-2.370
274001.000			-16.590			-2.370
274100.000			-16.590			-2.370
274201.000			-16.590			-2.370
274300.000			-16.590			-2.370
274400.000			-16.588			-2.370
274501.000			-16.587			-2.370
274601.000			-16.589			-2.370
274701.000			-16.588			-2.370
274802.000			-16.587			-2.370
274900.000			-16.587			-2.370
275000.000			-16.588			-2.370
275101.000			-16.587			-2.370
275200.000			-16.587			-2.370
275300.000			-16.587			-2.370
275401.000			-16.588			-2.370
275500.000			-16.588			-2.370
275601.000			-16.588			-2.370
275702.000			-16.589			-2.370
275801.000			-16.588			-2.370
275900.000			-16.587			-2.370
276001.000			-16.586			-2.369
276100.000			-16.587			-2.370
276200.000			-16.587			-2.370
276301.000			-16.587			-2.370
276400.000			-16.587			-2.370
276500.000			-16.587			-2.370
276602.000			-16.587			-2.370
276701.000			-16.586			-2.369
276801.000			-16.586			-2.369
276901.000			-16.585			-2.369
277000.000			-16.586			-2.369
277100.000			-16.587			-2.370
277201.000			-16.587			-2.370
277300.000			-16.587			-2.370
277401.000			-16.585			-2.369
277500.000			-16.586			-2.369
277601.000			-16.585			-2.369
277702.000			-16.586			-2.369
277801.000			-16.585			-2.369
277900.000			-16.586			-2.369
278001.000			-16.586			-2.369
278100.000			-16.585			-2.369
278200.000			-16.585			-2.369
278301.000			-16.586			-2.369
278400.000			-16.585			-2.369
278500.000			-16.585			-2.369
278602.000			-16.585			-2.369
278701.000			-16.585			-2.369
278801.000			-16.585			-2.369
278901.000			-16.585			-2.369
279000.000			-16.586			-2.369
279100.000			-16.585			-2.369
279201.000			-16.584			-2.369
279300.000			-16.584			-2.369
279400.000			-16.584			-2.369
279501.000			-16.585			-2.369
279601.000			-16.585			-2.369
279701.000			-16.585			-2.369
279802.000			-16.583			-2.369
279900.000			-16.583			-2.369
280000.000			-16.584			-2.369
280101.000			-16.584			-2.369
280200.000			-16.584			-2.369
280300.000			-16.583			-2.369
280401.000			-16.582			-2.369
280501.000			-16.583			-2.369
280602.000			-16.583			-2.369
280701.000			-16.583			-2.369
280800.000			-16.582			-2.369
280901.000			-16.582			-2.369
281000.000			-16.582			-2.369
281100.000			-16.583			-2.369
281201.000			-16.581			-2.369
281300.000			-16.582			-2.369
281400.000			-16.583			-2.369
281502.000			-16.582			-2.369
281601.000			-16.581			-2.369
281701.000			-16.581			-2.369
281801.000			-16.582			-2.369
281900.000			-16.581			-2.369
282000.000			-16.582			-2.369
282101.000			-16.580			-2.369
282200.000			-16.581			-2.369
282300.000			-16.581			-2.369
282401.000			-16.581			-2.369
282501.000			-16.580			-2.369
282601.000			-16.579			-2.368
282701.000			-16.579			-2.368
282800.000			-16.579			-2.368
282900.000			-16.578			-2.368
283001.000			-16.578			-2.368
283100.000			-16.580			-2.369
283200.000			-16.580			-2.369
283301.000			-16.579			-2.368
283401.000			-16.579			-2.368
283501.000			-16.578			-2.368
283602.000			-16.578			-2.368
283700.000			-16.578			-2.368
283801.000			-16.578			-2.368
283900.000			-16.578			-2.368
284000.000			-16.579			-2.368
284101.000			-16.577			-2.368
284200.000			-16.577			-2.368
284300.000			-16.578			-2.368
284402.000			-16.577			-2.368
284501.000			-16.577			-2.368
284601.000			-16.578			-2.368
284701.000			-16.577			-2.368
284800.000			-16.576			-2.368
284900.000			-16.576			-2.368
285001.000			-16.577			-2.368
285100.000			-16.576			-2.368
285200.000			-16.576			-2.368
285301.000			-16.575			-2.368
285401.000			-16.574			-2.368
285501.000			-16.575			-2.368
285602.000			-16.576			-2.368
285700.000			-16.575			-2.368
285800.000			-16.575			-2.368
285901.000			-16.575			-2.368
286000.000			-16.574			-2.368
286100.000			-16.574			-2.368
286201.000			-16.575			-2.368
286300.000			-16.574			-2.368
286401.000			-16.573			-2.368
286502.000			-16.573			-2.368
286600.000			-16.573			-2.368
286700.000			-16.573			-2.368
286801.000			-16.573			-2.368
286900.000			-16.573			-2.368
287001.000			-16.572			-2.367
287100.000			-16.571			-2.367
287200.000			-16.571			-2.367
287302.000			-16.571			-2.367
287401.000			-16.571			-2.367
287501.000			-16.572			-2.367
287601.000			-16.572			-2.367
287700.000			-16.571			-2.367
287800.000			-16.571			-2.367
287901.000			-16.570			-2.367
288000.000			-16.570			-2.367
288100.000			-16.570			-2.367
288201.000			-16.569			-2.367
288301.000			-16.569			-2.367
288401.000			-16.569			-2.367
288502.000			-16.569			-2.367
288600.000			-16.569			-2.367
288700.000			-16.569			-2.367
288801.000			-16.569			-2.367
288900.000			-16.568			-2.367
289000.000			-16.568			-2.367
289101.000			-16.567			-2.367
289200.000			-16.567			-2.367
289301.000			-16.567			-2.367
289402.000			-16.567			-2.367
289501.000			-16.566			-2.367
289600.000			-16.567			-2.367
289701.000			-16.566			-2.367
289800.000			-16.566			-2.367
289900.000			-16.566			-2.367
290001.000			-16.566			-2.367
290100.000			-16.566			-2.367
290201.000			-16.566			-2.367
290301.000			-16.565			-2.366
290401.000			-16.565			-2.366
290502.000			-16.565			-2.366
290600.000			-16.565			-2.366
290700.000			-16.565			-2.366
290801.000			-16.564			-2.366
290900.000			-16.563			-2.366
291000.000			-16.563			-2.366
291101.000			-16.563			-2.366
291200.000			-16.563			-2.366
291301.000			-16.563			-2.366
291402.000			-16.564			-2.366
291500.000			-16.563			-2.366
291600.000			-16.562			-2.366
291701.000			-16.563			-2.366
291800.000			-16.563			-2.366
291900.000			-16.563			-2.366
292001.000			-16.562			-2.366
292100.000			-16.561			-2.366
292201.000			-16.562			-2.366
292302.000			-16.563			-2.366
292400.000			-16.562			-2.366
292500.000			-16.561			-2.366
292601.000			-16.561			-2.366
292700.000			-16.561			-2.366
292800.000			-16.561			-2.366
292901.000			-16.560			-2.366
293000.000			-16.560			-2.366
293101.000			-16.560			-2.366
293202.000			-16.560			-2.366
293301.000			-16.560			-2.366
293401.000			-16.560			-2.366
293500.000			-16.560			-2.366
293600.000			-16.560			-2.366
293701.000			-16.560			-2.366
293800.000			-16.560			-2.366
293900.000			-16.560			-2.366
294001.000			-16.560			-2.366
294101.000			-16.559			-2.366
294201.000			-16.560			-2.366
294302.000			-16.558			-2.365
294400.000			-16.558			-2.365
294500.000			-16.558			-2.365
294601.000			-16.558			-2.365
294700.000			-16.558			-2.365
294800.000			-16.558			-2.365
294901.000			-16.558			-2.365
295000.000			-16.558			-2.365
295101.000			-16.558			-2.365
295202.000			-16.558			-2.365
295300.000			-16.557			-2.365
295400.000			-16.558			-2.365
295501.000			-16.557			-2.365
295600.000			-16.558			-2.365
295700.000			-16.558			-2.365
295801.000			-16.558			-2.365
295900.000			-16.558			-2.365
296000.000			-16.558			-2.365
296102.000			-16.558			-2.365
296201.000			-16.558			-2.365
296300.000			-16.557			-2.365
296401.000			-16.556			-2.365
296500.000			-16.558			-2.365
296601.000			-16.557			-2.365
296700.000			-16.557			-2.365
296800.000			-16.557			-2.365
296901.000			-16.557			-2.365
297001.000			-16.557			-2.365
297101.000			-16.557			-2.365
297202.000			-16.557			-2.365
297300.000			-16.556			-2.365
297400.000			-16.556			-2.365
297501.000			-16.557			-2.365
297600.000			-16.557			-2.365
297700.000			-16.556			-2.365
297801.000			-16.556			-2.365
297900.000			-16.556			-2.365
298001.000			-16.555			-2.365
298102.000			-16.556			-2.365
298201.000			-16.555			-2.365
298300.000			-16.555			-2.365
298401.000			-16.555			-2.365
298500.000			-16.556			-2.365
298600.000			-16.555			-2.365
298701.000			-16.555			-2.365
298800.000			-16.554			-2.365
298900.000			-16.554			-2.365
299002.000			-16.555			-2.365
299101.000			-16.555			-2.365
299201.000			-16.554			-2.365
299301.000			-16.554			-2.365
299400.000			-16.554			-2.365
299500.000			-16.554			-2.365
299601.000			-16.554			-2.365
299700.000			-16.554			-2.365
299801.000			-16.553			-2.365
299900.000			-16.553			-2.365
