# Acquired on 08/01/2024 16:47:10 
# SPIDER: Creep_6mm_07714532B-1
# CREEP MEASUREMENT

# time [ms]		force [N]		stiffness [N/mm]
0.000			-22.618			-3.770
100.000			-24.446			-4.074
201.000			-25.421			-4.237
302.000			-25.305			-4.218
400.000			-25.197			-4.199
500.000			-25.110			-4.185
601.000			-25.036			-4.173
700.000			-24.973			-4.162
800.000			-24.918			-4.153
902.000			-24.869			-4.145
1001.000			-24.783			-4.131
1101.000			-24.745			-4.124
1200.000			-24.709			-4.118
1300.000			-24.675			-4.113
1401.000			-24.645			-4.108
1500.000			-24.617			-4.103
1601.000			-24.591			-4.098
1702.000			-24.540			-4.090
1800.000			-24.518			-4.086
1900.000			-24.497			-4.083
2001.000			-24.476			-4.079
2100.000			-24.455			-4.076
2200.000			-24.436			-4.073
2301.000			-24.417			-4.070
2401.000			-24.383			-4.064
2501.000			-24.366			-4.061
2601.000			-24.350			-4.058
2700.000			-24.335			-4.056
2800.000			-24.320			-4.053
2901.000			-24.305			-4.051
3000.000			-24.292			-4.049
3100.000			-24.265			-4.044
3202.000			-24.252			-4.042
3301.000			-24.239			-4.040
3400.000			-24.227			-4.038
3501.000			-24.216			-4.036
3600.000			-24.204			-4.034
3700.000			-24.193			-4.032
3801.000			-24.182			-4.030
3900.000			-24.161			-4.027
4001.000			-24.150			-4.025
4101.000			-24.140			-4.023
4200.000			-24.130			-4.022
4301.000			-24.121			-4.020
4400.000			-24.112			-4.019
4500.000			-24.103			-4.017
4601.000			-24.085			-4.014
4701.000			-24.076			-4.013
4801.000			-24.067			-4.011
4901.000			-24.058			-4.010
5000.000			-24.050			-4.008
5100.000			-24.042			-4.007
5201.000			-24.034			-4.006
5300.000			-24.019			-4.003
5400.000			-24.011			-4.002
5502.000			-24.003			-4.001
5601.000			-23.996			-3.999
5700.000			-23.989			-3.998
5801.000			-23.983			-3.997
5900.000			-23.975			-3.996
6000.000			-23.962			-3.994
6101.000			-23.956			-3.993
6201.000			-23.948			-3.991
6301.000			-23.942			-3.990
6401.000			-23.935			-3.989
6500.000			-23.929			-3.988
6600.000			-23.923			-3.987
6701.000			-23.918			-3.986
6800.000			-23.905			-3.984
6900.000			-23.899			-3.983
7002.000			-23.893			-3.982
7101.000			-23.887			-3.981
7200.000			-23.881			-3.980
7301.000			-23.874			-3.979
7400.000			-23.869			-3.978
7501.000			-23.860			-3.977
7600.000			-23.855			-3.976
7700.000			-23.849			-3.975
7802.000			-23.843			-3.974
7901.000			-23.838			-3.973
8000.000			-23.833			-3.972
8101.000			-23.828			-3.971
8200.000			-23.819			-3.970
8300.000			-23.813			-3.969
8401.000			-23.807			-3.968
8501.000			-23.803			-3.967
8601.000			-23.799			-3.966
8701.000			-23.794			-3.966
8800.000			-23.790			-3.965
8900.000			-23.781			-3.964
9001.000			-23.776			-3.963
9100.000			-23.772			-3.962
9200.000			-23.768			-3.961
9302.000			-23.763			-3.961
9401.000			-23.758			-3.960
9500.000			-23.754			-3.959
9601.000			-23.746			-3.958
9700.000			-23.742			-3.957
9800.000			-23.738			-3.956
9901.000			-23.733			-3.956
10000.000			-23.729			-3.955
10101.000			-23.725			-3.954
10202.000			-23.721			-3.953
10300.000			-23.718			-3.953
10400.000			-23.710			-3.952
10501.000			-23.707			-3.951
10600.000			-23.704			-3.951
10701.000			-23.699			-3.950
10800.000			-23.695			-3.949
10901.000			-23.691			-3.948
11002.000			-23.687			-3.948
11100.000			-23.681			-3.947
11200.000			-23.677			-3.946
11301.000			-23.674			-3.946
11400.000			-23.670			-3.945
11500.000			-23.667			-3.944
11601.000			-23.663			-3.944
11701.000			-23.659			-3.943
11801.000			-23.652			-3.942
11901.000			-23.649			-3.941
12000.000			-23.646			-3.941
12100.000			-23.643			-3.941
12201.000			-23.639			-3.940
12300.000			-23.636			-3.939
12400.000			-23.633			-3.939
12502.000			-23.626			-3.938
12601.000			-23.623			-3.937
12700.000			-23.620			-3.937
12801.000			-23.616			-3.936
12900.000			-23.613			-3.935
13000.000			-23.610			-3.935
13101.000			-23.607			-3.934
13200.000			-23.604			-3.934
13301.000			-23.599			-3.933
13402.000			-23.595			-3.932
13500.000			-23.591			-3.932
13600.000			-23.589			-3.932
13701.000			-23.586			-3.931
13800.000			-23.582			-3.930
13901.000			-23.579			-3.930
14000.000			-23.574			-3.929
14101.000			-23.572			-3.929
14202.000			-23.569			-3.928
14300.000			-23.566			-3.928
14400.000			-23.563			-3.927
14501.000			-23.560			-3.927
14600.000			-23.557			-3.926
14700.000			-23.552			-3.925
14801.000			-23.549			-3.925
14901.000			-23.547			-3.925
15001.000			-23.545			-3.924
15101.000			-23.542			-3.924
15200.000			-23.539			-3.923
15300.000			-23.535			-3.923
15401.000			-23.531			-3.922
15500.000			-23.529			-3.921
15600.000			-23.526			-3.921
15702.000			-23.523			-3.921
15801.000			-23.521			-3.920
15900.000			-23.518			-3.920
16001.000			-23.515			-3.919
16100.000			-23.513			-3.919
16200.000			-23.508			-3.918
16301.000			-23.505			-3.918
16400.000			-23.503			-3.917
16501.000			-23.501			-3.917
16602.000			-23.499			-3.916
16700.000			-23.496			-3.916
16800.000			-23.494			-3.916
16901.000			-23.488			-3.915
17000.000			-23.486			-3.914
17101.000			-23.483			-3.914
17200.000			-23.481			-3.913
17301.000			-23.479			-3.913
17402.000			-23.477			-3.913
17500.000			-23.475			-3.913
17600.000			-23.470			-3.912
17701.000			-23.468			-3.911
17800.000			-23.465			-3.911
17900.000			-23.462			-3.910
18001.000			-23.461			-3.910
18101.000			-23.460			-3.910
18201.000			-23.457			-3.910
18301.000			-23.453			-3.909
18400.000			-23.451			-3.908
18500.000			-23.447			-3.908
18601.000			-23.445			-3.907
18700.000			-23.443			-3.907
18800.000			-23.442			-3.907
18902.000			-23.440			-3.907
19001.000			-23.438			-3.906
19100.000			-23.433			-3.906
19201.000			-23.431			-3.905
19300.000			-23.428			-3.905
19400.000			-23.427			-3.904
19501.000			-23.425			-3.904
19600.000			-23.422			-3.904
19701.000			-23.421			-3.903
19802.000			-23.416			-3.903
19900.000			-23.414			-3.902
20000.000			-23.412			-3.902
20101.000			-23.410			-3.902
20200.000			-23.409			-3.902
20301.000			-23.406			-3.901
20401.000			-23.404			-3.901
20501.000			-23.401			-3.900
20601.000			-23.399			-3.900
20700.000			-23.396			-3.899
20800.000			-23.394			-3.899
20901.000			-23.392			-3.899
21000.000			-23.391			-3.898
21100.000			-23.390			-3.898
21202.000			-23.386			-3.898
21301.000			-23.384			-3.897
21400.000			-23.381			-3.897
21501.000			-23.378			-3.896
21600.000			-23.378			-3.896
21700.000			-23.376			-3.896
21801.000			-23.373			-3.896
21900.000			-23.372			-3.895
22001.000			-23.369			-3.895
22102.000			-23.366			-3.894
22200.000			-23.365			-3.894
22300.000			-23.363			-3.894
22401.000			-23.361			-3.893
22500.000			-23.360			-3.893
22600.000			-23.358			-3.893
22701.000			-23.356			-3.893
22801.000			-23.354			-3.892
22901.000			-23.351			-3.892
23001.000			-23.348			-3.891
23100.000			-23.346			-3.891
23200.000			-23.344			-3.891
23301.000			-23.343			-3.890
23400.000			-23.340			-3.890
23501.000			-23.339			-3.890
23601.000			-23.337			-3.890
23701.000			-23.335			-3.889
23801.000			-23.334			-3.889
23900.000			-23.332			-3.889
24000.000			-23.330			-3.888
24101.000			-23.327			-3.888
24200.000			-23.324			-3.887
24300.000			-23.324			-3.887
24402.000			-23.323			-3.887
24501.000			-23.321			-3.887
24600.000			-23.318			-3.886
24701.000			-23.316			-3.886
24800.000			-23.311			-3.885
24900.000			-23.311			-3.885
25001.000			-23.310			-3.885
25100.000			-23.308			-3.885
25201.000			-23.306			-3.884
25302.000			-23.305			-3.884
25400.000			-23.303			-3.884
25500.000			-23.301			-3.883
25601.000			-23.298			-3.883
25700.000			-23.297			-3.883
25800.000			-23.295			-3.882
25901.000			-23.293			-3.882
26001.000			-23.292			-3.882
26101.000			-23.290			-3.882
26201.000			-23.289			-3.882
26300.000			-23.286			-3.881
26400.000			-23.284			-3.881
26501.000			-23.283			-3.880
26600.000			-23.281			-3.880
26701.000			-23.279			-3.880
26801.000			-23.279			-3.880
26901.000			-23.278			-3.880
27001.000			-23.274			-3.879
27100.000			-23.273			-3.879
27200.000			-23.271			-3.878
27301.000			-23.269			-3.878
27400.000			-23.268			-3.878
27500.000			-23.267			-3.878
27602.000			-23.265			-3.877
27701.000			-23.262			-3.877
27800.000			-23.260			-3.877
27901.000			-23.259			-3.876
28000.000			-23.257			-3.876
28100.000			-23.256			-3.876
28201.000			-23.255			-3.876
28300.000			-23.253			-3.875
28401.000			-23.252			-3.875
28502.000			-23.250			-3.875
28600.000			-23.248			-3.875
28700.000			-23.247			-3.874
28801.000			-23.245			-3.874
28900.000			-23.243			-3.874
29000.000			-23.243			-3.874
29101.000			-23.242			-3.874
29201.000			-23.237			-3.873
29301.000			-23.237			-3.873
29401.000			-23.235			-3.873
29500.000			-23.234			-3.872
29600.000			-23.233			-3.872
29701.000			-23.231			-3.872
29800.000			-23.229			-3.872
29901.000			-23.227			-3.871
30001.000			-23.226			-3.871
30101.000			-23.224			-3.871
30201.000			-23.222			-3.870
30300.000			-23.221			-3.870
30400.000			-23.219			-3.870
30501.000			-23.219			-3.870
30600.000			-23.216			-3.869
30700.000			-23.215			-3.869
30802.000			-23.214			-3.869
30901.000			-23.212			-3.869
31000.000			-23.212			-3.869
31101.000			-23.210			-3.868
31200.000			-23.208			-3.868
31300.000			-23.206			-3.868
31401.000			-23.204			-3.867
31501.000			-23.203			-3.867
31601.000			-23.202			-3.867
31701.000			-23.202			-3.867
31800.000			-23.201			-3.867
31900.000			-23.198			-3.866
32001.000			-23.197			-3.866
32100.000			-23.194			-3.866
32200.000			-23.193			-3.866
32302.000			-23.191			-3.865
32401.000			-23.191			-3.865
32500.000			-23.190			-3.865
32601.000			-23.188			-3.865
32700.000			-23.187			-3.864
32800.000			-23.185			-3.864
32901.000			-23.183			-3.864
33000.000			-23.182			-3.864
33102.000			-23.181			-3.864
33201.000			-23.179			-3.863
33300.000			-23.178			-3.863
33401.000			-23.178			-3.863
33500.000			-23.174			-3.862
33600.000			-23.173			-3.862
33701.000			-23.172			-3.862
33800.000			-23.172			-3.862
33901.000			-23.169			-3.862
34002.000			-23.168			-3.861
34100.000			-23.168			-3.861
34200.000			-23.167			-3.861
34301.000			-23.165			-3.861
34400.000			-23.164			-3.861
34500.000			-23.161			-3.860
34601.000			-23.161			-3.860
34701.000			-23.160			-3.860
34801.000			-23.158			-3.860
34901.000			-23.157			-3.859
35000.000			-23.155			-3.859
35100.000			-23.153			-3.859
35201.000			-23.152			-3.859
35300.000			-23.151			-3.859
35401.000			-23.150			-3.858
35502.000			-23.148			-3.858
35600.000			-23.147			-3.858
35700.000			-23.146			-3.858
35801.000			-23.145			-3.858
35900.000			-23.144			-3.857
36000.000			-23.143			-3.857
36101.000			-23.141			-3.857
36201.000			-23.141			-3.857
36302.000			-23.139			-3.857
36400.000			-23.136			-3.856
36500.000			-23.135			-3.856
36601.000			-23.135			-3.856
36700.000			-23.134			-3.856
36800.000			-23.133			-3.855
36901.000			-23.132			-3.855
37001.000			-23.130			-3.855
37101.000			-23.129			-3.855
37201.000			-23.127			-3.855
37300.000			-23.126			-3.854
37400.000			-23.125			-3.854
37501.000			-23.124			-3.854
37600.000			-23.124			-3.854
37700.000			-23.122			-3.854
37802.000			-23.120			-3.853
37901.000			-23.119			-3.853
38000.000			-23.117			-3.853
38101.000			-23.116			-3.853
38200.000			-23.115			-3.852
38300.000			-23.113			-3.852
38401.000			-23.113			-3.852
38500.000			-23.112			-3.852
38601.000			-23.110			-3.852
38702.000			-23.109			-3.852
38800.000			-23.108			-3.851
38900.000			-23.107			-3.851
39001.000			-23.106			-3.851
39100.000			-23.105			-3.851
39200.000			-23.104			-3.851
39302.000			-23.102			-3.850
39401.000			-23.101			-3.850
39501.000			-23.100			-3.850
39600.000			-23.098			-3.850
39700.000			-23.098			-3.850
39801.000			-23.097			-3.850
39900.000			-23.097			-3.849
40000.000			-23.095			-3.849
40101.000			-23.093			-3.849
40201.000			-23.092			-3.849
40301.000			-23.091			-3.848
40401.000			-23.090			-3.848
40500.000			-23.089			-3.848
40600.000			-23.089			-3.848
40701.000			-23.088			-3.848
40800.000			-23.085			-3.848
40901.000			-23.084			-3.847
41002.000			-23.083			-3.847
41101.000			-23.082			-3.847
41200.000			-23.081			-3.847
41301.000			-23.078			-3.846
41400.000			-23.078			-3.846
41500.000			-23.077			-3.846
41601.000			-23.075			-3.846
41701.000			-23.073			-3.846
41801.000			-23.074			-3.846
41901.000			-23.074			-3.846
42000.000			-23.073			-3.846
42100.000			-23.071			-3.845
42201.000			-23.069			-3.845
42300.000			-23.068			-3.845
42400.000			-23.067			-3.845
42502.000			-23.066			-3.844
42601.000			-23.065			-3.844
42701.000			-23.064			-3.844
42800.000			-23.064			-3.844
42900.000			-23.061			-3.843
43001.000			-23.062			-3.844
43100.000			-23.061			-3.843
43200.000			-23.060			-3.843
43302.000			-23.057			-3.843
43401.000			-23.056			-3.843
43500.000			-23.056			-3.843
43601.000			-23.055			-3.843
43700.000			-23.054			-3.842
43800.000			-23.052			-3.842
43901.000			-23.051			-3.842
44000.000			-23.049			-3.842
44101.000			-23.049			-3.841
44202.000			-23.048			-3.841
44300.000			-23.048			-3.841
44400.000			-23.045			-3.841
44501.000			-23.044			-3.841
44600.000			-23.044			-3.841
44700.000			-23.043			-3.840
44802.000			-23.042			-3.840
44901.000			-23.041			-3.840
45001.000			-23.040			-3.840
45101.000			-23.038			-3.840
45200.000			-23.037			-3.839
45300.000			-23.037			-3.840
45401.000			-23.037			-3.840
45500.000			-23.036			-3.839
45601.000			-23.035			-3.839
45702.000			-23.033			-3.839
45800.000			-23.031			-3.838
45901.000			-23.031			-3.838
46000.000			-23.030			-3.838
46100.000			-23.028			-3.838
46201.000			-23.028			-3.838
46300.000			-23.027			-3.838
46401.000			-23.026			-3.838
46502.000			-23.026			-3.838
46600.000			-23.023			-3.837
46700.000			-23.023			-3.837
46801.000			-23.022			-3.837
46900.000			-23.021			-3.837
47000.000			-23.021			-3.837
47101.000			-23.020			-3.837
47201.000			-23.019			-3.836
47301.000			-23.017			-3.836
47401.000			-23.016			-3.836
47500.000			-23.015			-3.836
47600.000			-23.013			-3.836
47701.000			-23.013			-3.835
47800.000			-23.013			-3.836
47900.000			-23.011			-3.835
48002.000			-23.009			-3.835
48101.000			-23.009			-3.835
48200.000			-23.008			-3.835
48301.000			-23.007			-3.834
48400.000			-23.007			-3.835
48500.000			-23.006			-3.834
48601.000			-23.005			-3.834
48700.000			-23.003			-3.834
48801.000			-23.003			-3.834
48902.000			-23.001			-3.833
49000.000			-23.000			-3.833
49101.000			-22.999			-3.833
49200.000			-22.999			-3.833
49300.000			-22.998			-3.833
49401.000			-22.998			-3.833
49500.000			-22.997			-3.833
49601.000			-22.995			-3.832
49702.000			-22.995			-3.832
49800.000			-22.993			-3.832
49900.000			-22.992			-3.832
50001.000			-22.991			-3.832
50100.000			-22.991			-3.832
50200.000			-22.990			-3.832
50301.000			-22.989			-3.832
50401.000			-22.988			-3.831
50501.000			-22.987			-3.831
50601.000			-22.986			-3.831
50700.000			-22.985			-3.831
50800.000			-22.984			-3.831
50901.000			-22.983			-3.830
51000.000			-22.981			-3.830
51100.000			-22.980			-3.830
51202.000			-22.980			-3.830
51301.000			-22.980			-3.830
51400.000			-22.979			-3.830
51501.000			-22.980			-3.830
51600.000			-22.976			-3.829
51700.000			-22.975			-3.829
51801.000			-22.975			-3.829
51900.000			-22.974			-3.829
52000.000			-22.973			-3.829
52102.000			-22.972			-3.829
52201.000			-22.972			-3.829
52301.000			-22.971			-3.829
52400.000			-22.968			-3.828
52500.000			-22.968			-3.828
52601.000			-22.967			-3.828
52700.000			-22.967			-3.828
52800.000			-22.967			-3.828
52902.000			-22.965			-3.828
53001.000			-22.964			-3.827
53100.000			-22.963			-3.827
53201.000			-22.962			-3.827
53300.000			-22.961			-3.827
53400.000			-22.960			-3.827
53501.000			-22.958			-3.826
53601.000			-22.958			-3.826
53701.000			-22.957			-3.826
53802.000			-22.958			-3.826
53900.000			-22.957			-3.826
54000.000			-22.956			-3.826
54101.000			-22.955			-3.826
54200.000			-22.954			-3.826
54300.000			-22.954			-3.826
54401.000			-22.953			-3.826
54501.000			-22.952			-3.825
54601.000			-22.951			-3.825
54701.000			-22.949			-3.825
54800.000			-22.949			-3.825
54900.000			-22.948			-3.825
55001.000			-22.948			-3.825
55100.000			-22.947			-3.824
55200.000			-22.945			-3.824
55302.000			-22.944			-3.824
55401.000			-22.944			-3.824
55501.000			-22.944			-3.824
55600.000			-22.943			-3.824
55700.000			-22.942			-3.824
55801.000			-22.941			-3.824
55900.000			-22.940			-3.823
56000.000			-22.937			-3.823
56102.000			-22.938			-3.823
56201.000			-22.937			-3.823
56300.000			-22.936			-3.823
56401.000			-22.935			-3.822
56500.000			-22.934			-3.822
56600.000			-22.934			-3.822
56701.000			-22.933			-3.822
56800.000			-22.932			-3.822
56901.000			-22.932			-3.822
57002.000			-22.930			-3.822
57100.000			-22.930			-3.822
57200.000			-22.930			-3.822
57301.000			-22.928			-3.821
57400.000			-22.927			-3.821
57500.000			-22.926			-3.821
57601.000			-22.925			-3.821
57701.000			-22.924			-3.821
57801.000			-22.923			-3.820
57902.000			-22.923			-3.821
58000.000			-22.923			-3.821
58100.000			-22.921			-3.820
58201.000			-22.920			-3.820
58300.000			-22.919			-3.820
58400.000			-22.918			-3.820
58501.000			-22.917			-3.820
58601.000			-22.918			-3.820
58702.000			-22.917			-3.819
58800.000			-22.915			-3.819
58900.000			-22.914			-3.819
59001.000			-22.915			-3.819
59100.000			-22.914			-3.819
59200.000			-22.912			-3.819
59301.000			-22.912			-3.819
59401.000			-22.912			-3.819
59501.000			-22.910			-3.818
59601.000			-22.909			-3.818
59700.000			-22.908			-3.818
59800.000			-22.908			-3.818
59901.000			-22.907			-3.818
60000.000			-22.906			-3.818
60100.000			-22.906			-3.818
60202.000			-22.905			-3.818
60301.000			-22.904			-3.817
60400.000			-22.903			-3.817
60501.000			-22.904			-3.817
60600.000			-22.903			-3.817
60700.000			-22.902			-3.817
60801.000			-22.901			-3.817
60900.000			-22.899			-3.817
61001.000			-22.899			-3.816
61102.000			-22.898			-3.816
61200.000			-22.898			-3.816
61300.000			-22.897			-3.816
61401.000			-22.896			-3.816
61500.000			-22.894			-3.816
61600.000			-22.893			-3.816
61701.000			-22.893			-3.816
61801.000			-22.893			-3.815
61902.000			-22.892			-3.815
62000.000			-22.891			-3.815
62100.000			-22.889			-3.815
62201.000			-22.890			-3.815
62300.000			-22.889			-3.815
62400.000			-22.889			-3.815
62501.000			-22.887			-3.815
62601.000			-22.887			-3.814
62701.000			-22.886			-3.814
62801.000			-22.885			-3.814
62900.000			-22.884			-3.814
63000.000			-22.884			-3.814
63101.000			-22.883			-3.814
63200.000			-22.882			-3.814
63300.000			-22.882			-3.814
63402.000			-22.881			-3.813
63501.000			-22.880			-3.813
63601.000			-22.879			-3.813
63701.000			-22.879			-3.813
63800.000			-22.878			-3.813
63900.000			-22.877			-3.813
64001.000			-22.877			-3.813
64100.000			-22.876			-3.813
64200.000			-22.875			-3.812
64302.000			-22.875			-3.812
64401.000			-22.874			-3.812
64500.000			-22.874			-3.812
64601.000			-22.873			-3.812
64700.000			-22.872			-3.812
64800.000			-22.871			-3.812
64901.000			-22.870			-3.812
65000.000			-22.869			-3.811
65102.000			-22.869			-3.811
65201.000			-22.868			-3.811
65300.000			-22.867			-3.811
65401.000			-22.867			-3.811
65500.000			-22.866			-3.811
65600.000			-22.865			-3.811
65701.000			-22.864			-3.811
65800.000			-22.864			-3.811
65901.000			-22.863			-3.810
66002.000			-22.862			-3.810
66100.000			-22.861			-3.810
66200.000			-22.860			-3.810
66301.000			-22.860			-3.810
66400.000			-22.860			-3.810
66500.000			-22.858			-3.810
66601.000			-22.858			-3.810
66701.000			-22.859			-3.810
66801.000			-22.857			-3.810
66902.000			-22.855			-3.809
67000.000			-22.854			-3.809
67100.000			-22.854			-3.809
67201.000			-22.853			-3.809
67300.000			-22.852			-3.809
67400.000			-22.851			-3.809
67501.000			-22.851			-3.809
67601.000			-22.851			-3.808
67701.000			-22.850			-3.808
67801.000			-22.849			-3.808
67900.000			-22.849			-3.808
68000.000			-22.847			-3.808
68101.000			-22.847			-3.808
68200.000			-22.846			-3.808
68301.000			-22.846			-3.808
68401.000			-22.845			-3.808
68501.000			-22.845			-3.807
68601.000			-22.844			-3.807
68700.000			-22.843			-3.807
68800.000			-22.842			-3.807
68901.000			-22.842			-3.807
69000.000			-22.841			-3.807
69100.000			-22.841			-3.807
69201.000			-22.840			-3.807
69301.000			-22.840			-3.807
69401.000			-22.840			-3.807
69501.000			-22.838			-3.806
69600.000			-22.837			-3.806
69700.000			-22.837			-3.806
69801.000			-22.835			-3.806
69900.000			-22.834			-3.806
70000.000			-22.835			-3.806
70102.000			-22.835			-3.806
70201.000			-22.833			-3.806
70300.000			-22.832			-3.805
70401.000			-22.832			-3.805
70500.000			-22.831			-3.805
70600.000			-22.830			-3.805
70701.000			-22.830			-3.805
70800.000			-22.829			-3.805
70901.000			-22.828			-3.805
71002.000			-22.827			-3.805
71100.000			-22.828			-3.805
71200.000			-22.827			-3.804
71301.000			-22.826			-3.804
71400.000			-22.825			-3.804
71501.000			-22.824			-3.804
71600.000			-22.823			-3.804
71701.000			-22.824			-3.804
71802.000			-22.824			-3.804
71900.000			-22.821			-3.803
72000.000			-22.820			-3.803
72101.000			-22.820			-3.803
72200.000			-22.820			-3.803
72300.000			-22.820			-3.803
72401.000			-22.819			-3.803
72501.000			-22.818			-3.803
72601.000			-22.818			-3.803
72701.000			-22.818			-3.803
72800.000			-22.816			-3.803
72900.000			-22.816			-3.803
73001.000			-22.815			-3.803
73100.000			-22.815			-3.802
73200.000			-22.814			-3.802
73302.000			-22.813			-3.802
73401.000			-22.812			-3.802
73500.000			-22.811			-3.802
73601.000			-22.810			-3.802
73700.000			-22.811			-3.802
73800.000			-22.809			-3.802
73901.000			-22.808			-3.801
74000.000			-22.809			-3.801
74101.000			-22.808			-3.801
74202.000			-22.807			-3.801
74301.000			-22.806			-3.801
74400.000			-22.807			-3.801
74501.000			-22.806			-3.801
74600.000			-22.806			-3.801
74701.000			-22.805			-3.801
74800.000			-22.803			-3.800
74900.000			-22.803			-3.800
75002.000			-22.803			-3.800
75101.000			-22.802			-3.800
75200.000			-22.801			-3.800
75301.000			-22.800			-3.800
75400.000			-22.799			-3.800
75500.000			-22.800			-3.800
75601.000			-22.798			-3.800
75700.000			-22.797			-3.800
75801.000			-22.797			-3.800
75902.000			-22.797			-3.799
76000.000			-22.796			-3.799
76100.000			-22.796			-3.799
76201.000			-22.794			-3.799
76300.000			-22.793			-3.799
76400.000			-22.793			-3.799
76501.000			-22.793			-3.799
76601.000			-22.792			-3.799
76701.000			-22.791			-3.798
76802.000			-22.790			-3.798
76900.000			-22.790			-3.798
77000.000			-22.788			-3.798
77101.000			-22.788			-3.798
77200.000			-22.789			-3.798
77300.000			-22.788			-3.798
77401.000			-22.787			-3.798
77501.000			-22.787			-3.798
77601.000			-22.786			-3.798
77701.000			-22.785			-3.797
77800.000			-22.784			-3.797
77901.000			-22.784			-3.797
78000.000			-22.784			-3.797
78100.000			-22.783			-3.797
78201.000			-22.782			-3.797
78301.000			-22.782			-3.797
78401.000			-22.781			-3.797
78502.000			-22.781			-3.797
78600.000			-22.781			-3.797
78700.000			-22.779			-3.797
78801.000			-22.778			-3.796
78900.000			-22.778			-3.796
79000.000			-22.779			-3.796
79101.000			-22.778			-3.796
79201.000			-22.776			-3.796
79301.000			-22.775			-3.796
79401.000			-22.776			-3.796
79500.000			-22.775			-3.796
79600.000			-22.775			-3.796
79701.000			-22.773			-3.796
79800.000			-22.773			-3.796
79900.000			-22.773			-3.796
80002.000			-22.772			-3.795
80101.000			-22.772			-3.795
80200.000			-22.772			-3.795
80301.000			-22.770			-3.795
80400.000			-22.770			-3.795
80500.000			-22.769			-3.795
80601.000			-22.767			-3.795
80700.000			-22.767			-3.795
80800.000			-22.767			-3.795
80902.000			-22.766			-3.794
81001.000			-22.766			-3.794
81101.000			-22.765			-3.794
81200.000			-22.765			-3.794
81300.000			-22.763			-3.794
81401.000			-22.762			-3.794
81500.000			-22.761			-3.794
81600.000			-22.762			-3.794
81702.000			-22.761			-3.794
81801.000			-22.761			-3.793
81900.000			-22.760			-3.793
82001.000			-22.760			-3.793
82100.000			-22.759			-3.793
82200.000			-22.758			-3.793
82301.000			-22.758			-3.793
82400.000			-22.757			-3.793
82501.000			-22.756			-3.793
82602.000			-22.757			-3.793
82700.000			-22.756			-3.793
82800.000			-22.756			-3.793
82901.000			-22.754			-3.792
83000.000			-22.754			-3.792
83100.000			-22.755			-3.792
83201.000			-22.754			-3.792
83301.000			-22.753			-3.792
83401.000			-22.753			-3.792
83501.000			-22.752			-3.792
83600.000			-22.751			-3.792
83700.000			-22.750			-3.792
83801.000			-22.750			-3.792
83900.000			-22.749			-3.791
84000.000			-22.748			-3.791
84102.000			-22.748			-3.791
84201.000			-22.748			-3.791
84302.000			-22.747			-3.791
84400.000			-22.746			-3.791
84500.000			-22.745			-3.791
84601.000			-22.744			-3.791
84700.000			-22.745			-3.791
84800.000			-22.745			-3.791
84901.000			-22.744			-3.791
85001.000			-22.742			-3.790
85101.000			-22.742			-3.790
85201.000			-22.741			-3.790
85300.000			-22.740			-3.790
85400.000			-22.740			-3.790
85501.000			-22.740			-3.790
85600.000			-22.739			-3.790
85700.000			-22.739			-3.790
85802.000			-22.739			-3.790
85901.000			-22.737			-3.790
86000.000			-22.737			-3.790
86101.000			-22.737			-3.790
86200.000			-22.737			-3.790
86300.000			-22.736			-3.789
86401.000			-22.736			-3.789
86500.000			-22.735			-3.789
86600.000			-22.734			-3.789
86702.000			-22.734			-3.789
86801.000			-22.732			-3.789
86900.000			-22.732			-3.789
87001.000			-22.732			-3.789
87100.000			-22.732			-3.789
87200.000			-22.731			-3.789
87301.000			-22.730			-3.788
87400.000			-22.730			-3.788
87502.000			-22.729			-3.788
87601.000			-22.729			-3.788
87700.000			-22.729			-3.788
87801.000			-22.728			-3.788
87900.000			-22.727			-3.788
88000.000			-22.726			-3.788
88101.000			-22.726			-3.788
88200.000			-22.724			-3.787
88301.000			-22.725			-3.787
88402.000			-22.724			-3.787
88500.000			-22.724			-3.787
88600.000			-22.723			-3.787
88701.000			-22.722			-3.787
88800.000			-22.722			-3.787
88900.000			-22.722			-3.787
89001.000			-22.721			-3.787
89100.000			-22.720			-3.787
89201.000			-22.720			-3.787
89302.000			-22.721			-3.787
89400.000			-22.719			-3.787
89500.000			-22.718			-3.786
89601.000			-22.718			-3.786
89700.000			-22.717			-3.786
89800.000			-22.717			-3.786
89901.000			-22.716			-3.786
90001.000			-22.715			-3.786
90101.000			-22.714			-3.786
90201.000			-22.714			-3.786
90300.000			-22.714			-3.786
90400.000			-22.713			-3.786
90501.000			-22.713			-3.786
90600.000			-22.713			-3.785
90701.000			-22.712			-3.785
90801.000			-22.711			-3.785
90901.000			-22.711			-3.785
91001.000			-22.710			-3.785
91100.000			-22.710			-3.785
91200.000			-22.710			-3.785
91301.000			-22.708			-3.785
91400.000			-22.709			-3.785
91500.000			-22.708			-3.785
91602.000			-22.708			-3.785
91701.000			-22.707			-3.785
91800.000			-22.706			-3.784
91901.000			-22.705			-3.784
92000.000			-22.704			-3.784
92100.000			-22.704			-3.784
92201.000			-22.704			-3.784
92300.000			-22.704			-3.784
92401.000			-22.703			-3.784
92502.000			-22.702			-3.784
92600.000			-22.702			-3.784
92700.000			-22.701			-3.783
92801.000			-22.700			-3.783
92900.000			-22.700			-3.783
93000.000			-22.700			-3.783
93101.000			-22.699			-3.783
93201.000			-22.699			-3.783
93301.000			-22.699			-3.783
93401.000			-22.698			-3.783
93500.000			-22.698			-3.783
93600.000			-22.698			-3.783
93701.000			-22.697			-3.783
93800.000			-22.697			-3.783
93901.000			-22.696			-3.783
94001.000			-22.696			-3.783
94101.000			-22.696			-3.783
94202.000			-22.696			-3.783
94300.000			-22.695			-3.782
94400.000			-22.693			-3.782
94501.000			-22.693			-3.782
94600.000			-22.693			-3.782
94700.000			-22.692			-3.782
94801.000			-22.691			-3.782
94901.000			-22.690			-3.782
95001.000			-22.691			-3.782
95101.000			-22.689			-3.782
95200.000			-22.689			-3.782
95300.000			-22.689			-3.782
95401.000			-22.689			-3.781
95500.000			-22.689			-3.781
95600.000			-22.688			-3.781
95702.000			-22.687			-3.781
95801.000			-22.687			-3.781
95900.000			-22.686			-3.781
96001.000			-22.685			-3.781
96100.000			-22.684			-3.781
96200.000			-22.685			-3.781
96301.000			-22.684			-3.781
96400.000			-22.683			-3.781
96500.000			-22.683			-3.780
96602.000			-22.682			-3.780
96701.000			-22.682			-3.780
96800.000			-22.682			-3.780
96901.000			-22.682			-3.780
97000.000			-22.681			-3.780
97101.000			-22.681			-3.780
97200.000			-22.681			-3.780
97300.000			-22.678			-3.780
97402.000			-22.679			-3.780
97501.000			-22.679			-3.780
97600.000			-22.678			-3.780
97701.000			-22.677			-3.780
97800.000			-22.677			-3.780
97900.000			-22.677			-3.780
98001.000			-22.676			-3.779
98100.000			-22.675			-3.779
98200.000			-22.674			-3.779
98302.000			-22.673			-3.779
98401.000			-22.673			-3.779
98500.000			-22.674			-3.779
98601.000			-22.674			-3.779
98700.000			-22.672			-3.779
98800.000			-22.672			-3.779
98901.000			-22.671			-3.778
99000.000			-22.670			-3.778
99101.000			-22.671			-3.778
99202.000			-22.671			-3.778
99300.000			-22.670			-3.778
99400.000			-22.669			-3.778
99501.000			-22.667			-3.778
99600.000			-22.668			-3.778
99700.000			-22.668			-3.778
99801.000			-22.667			-3.778
99900.000			-22.666			-3.778
100001.000			-22.666			-3.778
100102.000			-22.667			-3.778
100200.000			-22.665			-3.778
100301.000			-22.665			-3.777
100400.000			-22.664			-3.777
100500.000			-22.664			-3.777
100601.000			-22.664			-3.777
100700.000			-22.663			-3.777
100801.000			-22.663			-3.777
100902.000			-22.662			-3.777
101000.000			-22.662			-3.777
101100.000			-22.661			-3.777
101201.000			-22.661			-3.777
101300.000			-22.661			-3.777
101400.000			-22.660			-3.777
101501.000			-22.659			-3.777
101601.000			-22.659			-3.776
101701.000			-22.659			-3.776
101802.000			-22.658			-3.776
101900.000			-22.658			-3.776
102000.000			-22.657			-3.776
102101.000			-22.656			-3.776
102200.000			-22.655			-3.776
102300.000			-22.654			-3.776
102401.000			-22.654			-3.776
102501.000			-22.655			-3.776
102601.000			-22.653			-3.776
102701.000			-22.654			-3.776
102800.000			-22.654			-3.776
102900.000			-22.652			-3.775
103001.000			-22.653			-3.775
103100.000			-22.651			-3.775
103200.000			-22.650			-3.775
103302.000			-22.650			-3.775
103401.000			-22.650			-3.775
103501.000			-22.650			-3.775
103600.000			-22.649			-3.775
103700.000			-22.649			-3.775
103801.000			-22.648			-3.775
103900.000			-22.647			-3.775
104000.000			-22.647			-3.775
104102.000			-22.646			-3.774
104201.000			-22.646			-3.774
104300.000			-22.645			-3.774
104401.000			-22.644			-3.774
104500.000			-22.644			-3.774
104600.000			-22.643			-3.774
104701.000			-22.642			-3.774
104800.000			-22.644			-3.774
104901.000			-22.643			-3.774
105002.000			-22.643			-3.774
105101.000			-22.641			-3.774
105200.000			-22.641			-3.774
105301.000			-22.642			-3.774
105400.000			-22.641			-3.774
105500.000			-22.640			-3.773
105601.000			-22.640			-3.773
105701.000			-22.640			-3.773
105801.000			-22.639			-3.773
105902.000			-22.640			-3.773
106000.000			-22.639			-3.773
106100.000			-22.638			-3.773
106201.000			-22.638			-3.773
106300.000			-22.638			-3.773
106400.000			-22.638			-3.773
106501.000			-22.636			-3.773
106601.000			-22.636			-3.773
106702.000			-22.635			-3.772
106800.000			-22.635			-3.772
106900.000			-22.635			-3.773
107001.000			-22.634			-3.772
107100.000			-22.633			-3.772
107200.000			-22.634			-3.772
107301.000			-22.634			-3.772
107401.000			-22.633			-3.772
107501.000			-22.633			-3.772
107602.000			-22.633			-3.772
107700.000			-22.631			-3.772
107800.000			-22.631			-3.772
107901.000			-22.632			-3.772
108000.000			-22.632			-3.772
108100.000			-22.630			-3.772
108201.000			-22.629			-3.771
108301.000			-22.628			-3.771
108401.000			-22.628			-3.771
108501.000			-22.628			-3.771
108600.000			-22.627			-3.771
108700.000			-22.627			-3.771
108801.000			-22.626			-3.771
108900.000			-22.626			-3.771
109000.000			-22.626			-3.771
109102.000			-22.626			-3.771
109201.000			-22.626			-3.771
109300.000			-22.626			-3.771
109401.000			-22.625			-3.771
109500.000			-22.624			-3.771
109600.000			-22.622			-3.770
109701.000			-22.623			-3.770
109800.000			-22.623			-3.770
109901.000			-22.623			-3.770
110001.000			-22.622			-3.770
110101.000			-22.621			-3.770
110201.000			-22.621			-3.770
110300.000			-22.621			-3.770
110400.000			-22.620			-3.770
110501.000			-22.620			-3.770
110600.000			-22.619			-3.770
110700.000			-22.619			-3.770
110802.000			-22.618			-3.770
110901.000			-22.618			-3.770
111000.000			-22.618			-3.770
111101.000			-22.617			-3.769
111200.000			-22.615			-3.769
111300.000			-22.615			-3.769
111401.000			-22.616			-3.769
111500.000			-22.616			-3.769
111601.000			-22.615			-3.769
111702.000			-22.615			-3.769
111800.000			-22.614			-3.769
111900.000			-22.615			-3.769
112001.000			-22.614			-3.769
112100.000			-22.613			-3.769
112200.000			-22.613			-3.769
112301.000			-22.614			-3.769
112401.000			-22.612			-3.769
112501.000			-22.612			-3.769
112601.000			-22.611			-3.769
112700.000			-22.610			-3.768
112800.000			-22.610			-3.768
112901.000			-22.609			-3.768
113000.000			-22.609			-3.768
113101.000			-22.609			-3.768
113200.000			-22.608			-3.768
113301.000			-22.608			-3.768
113402.000			-22.607			-3.768
113500.000			-22.607			-3.768
113600.000			-22.607			-3.768
113701.000			-22.607			-3.768
113800.000			-22.606			-3.768
113900.000			-22.605			-3.767
114001.000			-22.604			-3.767
114101.000			-22.605			-3.767
114201.000			-22.604			-3.767
114301.000			-22.603			-3.767
114400.000			-22.603			-3.767
114500.000			-22.603			-3.767
114601.000			-22.603			-3.767
114700.000			-22.602			-3.767
114800.000			-22.601			-3.767
114902.000			-22.601			-3.767
115001.000			-22.601			-3.767
115100.000			-22.600			-3.767
115201.000			-22.601			-3.767
115300.000			-22.601			-3.767
115400.000			-22.599			-3.767
115501.000			-22.599			-3.767
115600.000			-22.599			-3.767
115700.000			-22.598			-3.766
115802.000			-22.597			-3.766
115901.000			-22.597			-3.766
116000.000			-22.597			-3.766
116101.000			-22.597			-3.766
116200.000			-22.596			-3.766
116301.000			-22.595			-3.766
116400.000			-22.595			-3.766
116500.000			-22.595			-3.766
116602.000			-22.596			-3.766
116701.000			-22.595			-3.766
116801.000			-22.593			-3.766
116901.000			-22.593			-3.765
117000.000			-22.593			-3.765
117100.000			-22.592			-3.765
117201.000			-22.592			-3.765
117300.000			-22.591			-3.765
117400.000			-22.592			-3.765
117502.000			-22.591			-3.765
117601.000			-22.590			-3.765
117700.000			-22.589			-3.765
117801.000			-22.589			-3.765
117900.000			-22.588			-3.765
118000.000			-22.588			-3.765
118101.000			-22.588			-3.765
118200.000			-22.588			-3.765
118300.000			-22.587			-3.764
118402.000			-22.587			-3.764
118501.000			-22.587			-3.764
118600.000			-22.587			-3.764
118701.000			-22.586			-3.764
118800.000			-22.586			-3.764
118900.000			-22.585			-3.764
119001.000			-22.585			-3.764
119100.000			-22.584			-3.764
119201.000			-22.583			-3.764
119302.000			-22.583			-3.764
119401.000			-22.582			-3.764
119501.000			-22.582			-3.764
119600.000			-22.581			-3.764
119700.000			-22.583			-3.764
119801.000			-22.582			-3.764
119900.000			-22.580			-3.763
120000.000			-22.581			-3.764
120102.000			-22.581			-3.764
120201.000			-22.580			-3.763
120300.000			-22.580			-3.763
120401.000			-22.580			-3.763
120500.000			-22.579			-3.763
120600.000			-22.579			-3.763
120701.000			-22.578			-3.763
120800.000			-22.577			-3.763
120900.000			-22.578			-3.763
121002.000			-22.578			-3.763
121101.000			-22.577			-3.763
121200.000			-22.575			-3.763
121301.000			-22.576			-3.763
121400.000			-22.576			-3.763
121500.000			-22.574			-3.762
121601.000			-22.574			-3.762
121700.000			-22.574			-3.762
121801.000			-22.574			-3.762
121902.000			-22.572			-3.762
122000.000			-22.572			-3.762
122100.000			-22.572			-3.762
122201.000			-22.573			-3.762
122300.000			-22.573			-3.762
122400.000			-22.571			-3.762
122501.000			-22.570			-3.762
122601.000			-22.571			-3.762
122702.000			-22.570			-3.762
122801.000			-22.569			-3.762
122900.000			-22.569			-3.761
123001.000			-22.568			-3.761
123100.000			-22.568			-3.761
123200.000			-22.569			-3.761
123301.000			-22.568			-3.761
123400.000			-22.567			-3.761
123501.000			-22.565			-3.761
123602.000			-22.566			-3.761
123700.000			-22.566			-3.761
123800.000			-22.566			-3.761
123901.000			-22.565			-3.761
124000.000			-22.564			-3.761
124100.000			-22.564			-3.761
124201.000			-22.564			-3.761
124300.000			-22.564			-3.761
124401.000			-22.563			-3.761
124502.000			-22.563			-3.760
124600.000			-22.562			-3.760
124700.000			-22.561			-3.760
124801.000			-22.560			-3.760
124900.000			-22.561			-3.760
125000.000			-22.561			-3.760
125101.000			-22.562			-3.760
125201.000			-22.560			-3.760
125301.000			-22.559			-3.760
125401.000			-22.560			-3.760
125500.000			-22.559			-3.760
125600.000			-22.558			-3.760
125701.000			-22.558			-3.760
125800.000			-22.558			-3.760
125901.000			-22.557			-3.760
126001.000			-22.558			-3.760
126101.000			-22.558			-3.760
126202.000			-22.556			-3.759
126300.000			-22.558			-3.760
126400.000			-22.556			-3.759
126501.000			-22.554			-3.759
126600.000			-22.554			-3.759
126700.000			-22.554			-3.759
126801.000			-22.554			-3.759
126901.000			-22.554			-3.759
127001.000			-22.553			-3.759
127101.000			-22.552			-3.759
127200.000			-22.552			-3.759
127300.000			-22.552			-3.759
127401.000			-22.552			-3.759
127500.000			-22.552			-3.759
127600.000			-22.552			-3.759
127702.000			-22.550			-3.758
127801.000			-22.549			-3.758
127901.000			-22.549			-3.758
128001.000			-22.549			-3.758
128100.000			-22.550			-3.758
128200.000			-22.549			-3.758
128301.000			-22.548			-3.758
128400.000			-22.548			-3.758
128500.000			-22.547			-3.758
128602.000			-22.546			-3.758
128701.000			-22.546			-3.758
128800.000			-22.546			-3.758
128901.000			-22.546			-3.758
129000.000			-22.547			-3.758
129101.000			-22.545			-3.758
129200.000			-22.545			-3.757
129300.000			-22.544			-3.757
129401.000			-22.544			-3.757
129501.000			-22.544			-3.757
129601.000			-22.544			-3.757
129701.000			-22.544			-3.757
129800.000			-22.544			-3.757
129900.000			-22.541			-3.757
130001.000			-22.542			-3.757
130100.000			-22.542			-3.757
130200.000			-22.542			-3.757
130302.000			-22.542			-3.757
130401.000			-22.541			-3.757
130500.000			-22.541			-3.757
130601.000			-22.540			-3.757
130700.000			-22.539			-3.756
130800.000			-22.540			-3.757
130901.000			-22.538			-3.756
131000.000			-22.538			-3.756
131101.000			-22.539			-3.756
131202.000			-22.538			-3.756
131301.000			-22.537			-3.756
131400.000			-22.537			-3.756
131501.000			-22.537			-3.756
131600.000			-22.537			-3.756
131700.000			-22.537			-3.756
131801.000			-22.537			-3.756
131900.000			-22.537			-3.756
132001.000			-22.535			-3.756
132102.000			-22.534			-3.756
132201.000			-22.535			-3.756
132301.000			-22.534			-3.756
132400.000			-22.533			-3.756
132500.000			-22.532			-3.755
132601.000			-22.532			-3.755
132700.000			-22.532			-3.755
132800.000			-22.531			-3.755
132902.000			-22.531			-3.755
133001.000			-22.530			-3.755
133101.000			-22.529			-3.755
133201.000			-22.530			-3.755
133300.000			-22.530			-3.755
133400.000			-22.529			-3.755
133501.000			-22.527			-3.755
133600.000			-22.528			-3.755
133700.000			-22.528			-3.755
133802.000			-22.527			-3.755
133901.000			-22.527			-3.755
134001.000			-22.526			-3.754
134101.000			-22.527			-3.754
134200.000			-22.525			-3.754
134300.000			-22.525			-3.754
134401.000			-22.524			-3.754
134500.000			-22.525			-3.754
134600.000			-22.525			-3.754
134701.000			-22.525			-3.754
134801.000			-22.524			-3.754
134901.000			-22.524			-3.754
135001.000			-22.522			-3.754
135100.000			-22.522			-3.754
135200.000			-22.522			-3.754
135301.000			-22.523			-3.754
135400.000			-22.523			-3.754
135501.000			-22.522			-3.754
135600.000			-22.521			-3.753
135701.000			-22.521			-3.754
135802.000			-22.521			-3.753
135900.000			-22.520			-3.753
136000.000			-22.520			-3.753
136101.000			-22.519			-3.753
136200.000			-22.519			-3.753
136300.000			-22.519			-3.753
136401.000			-22.518			-3.753
136500.000			-22.518			-3.753
136601.000			-22.517			-3.753
136702.000			-22.517			-3.753
136801.000			-22.517			-3.753
136900.000			-22.517			-3.753
137001.000			-22.516			-3.753
137100.000			-22.516			-3.753
137200.000			-22.516			-3.753
137301.000			-22.514			-3.752
137400.000			-22.514			-3.752
137500.000			-22.513			-3.752
137602.000			-22.513			-3.752
137701.000			-22.513			-3.752
137800.000			-22.513			-3.752
137901.000			-22.512			-3.752
138000.000			-22.513			-3.752
138100.000			-22.512			-3.752
138201.000			-22.512			-3.752
138300.000			-22.511			-3.752
138400.000			-22.510			-3.752
138502.000			-22.511			-3.752
138601.000			-22.510			-3.752
138701.000			-22.511			-3.752
138800.000			-22.511			-3.752
138900.000			-22.510			-3.752
139001.000			-22.509			-3.751
139100.000			-22.508			-3.751
139200.000			-22.507			-3.751
139301.000			-22.509			-3.752
139401.000			-22.509			-3.751
139501.000			-22.508			-3.751
139601.000			-22.508			-3.751
139700.000			-22.507			-3.751
139800.000			-22.506			-3.751
139901.000			-22.506			-3.751
140000.000			-22.504			-3.751
140100.000			-22.505			-3.751
140201.000			-22.504			-3.751
140301.000			-22.503			-3.750
140401.000			-22.503			-3.751
140501.000			-22.503			-3.751
140600.000			-22.504			-3.751
140700.000			-22.503			-3.751
140801.000			-22.502			-3.750
140900.000			-22.502			-3.750
141000.000			-22.501			-3.750
141101.000			-22.501			-3.750
141201.000			-22.501			-3.750
141301.000			-22.501			-3.750
141401.000			-22.500			-3.750
141500.000			-22.500			-3.750
141600.000			-22.500			-3.750
141701.000			-22.500			-3.750
141800.000			-22.499			-3.750
141901.000			-22.499			-3.750
142000.000			-22.498			-3.750
142101.000			-22.497			-3.750
142202.000			-22.497			-3.750
142300.000			-22.496			-3.749
142400.000			-22.496			-3.749
142501.000			-22.496			-3.749
142600.000			-22.495			-3.749
142700.000			-22.496			-3.749
142801.000			-22.496			-3.749
142900.000			-22.495			-3.749
143001.000			-22.495			-3.749
143102.000			-22.494			-3.749
143201.000			-22.494			-3.749
143300.000			-22.493			-3.749
143401.000			-22.494			-3.749
143500.000			-22.493			-3.749
143600.000			-22.491			-3.749
143701.000			-22.492			-3.749
143800.000			-22.492			-3.749
143901.000			-22.492			-3.749
144002.000			-22.492			-3.749
144101.000			-22.492			-3.749
144200.000			-22.492			-3.749
144301.000			-22.491			-3.748
144400.000			-22.490			-3.748
144500.000			-22.490			-3.748
144601.000			-22.490			-3.748
144700.000			-22.490			-3.748
144800.000			-22.489			-3.748
144902.000			-22.488			-3.748
145001.000			-22.488			-3.748
145101.000			-22.488			-3.748
145200.000			-22.488			-3.748
145300.000			-22.488			-3.748
145401.000			-22.487			-3.748
145500.000			-22.487			-3.748
145600.000			-22.487			-3.748
145701.000			-22.487			-3.748
145801.000			-22.486			-3.748
145901.000			-22.485			-3.748
146002.000			-22.484			-3.747
146100.000			-22.484			-3.747
146200.000			-22.484			-3.747
146301.000			-22.484			-3.747
146400.000			-22.483			-3.747
146500.000			-22.484			-3.747
146601.000			-22.483			-3.747
146700.000			-22.483			-3.747
146801.000			-22.482			-3.747
146902.000			-22.482			-3.747
147000.000			-22.481			-3.747
147100.000			-22.481			-3.747
147201.000			-22.481			-3.747
147300.000			-22.480			-3.747
147400.000			-22.480			-3.747
147501.000			-22.480			-3.747
147600.000			-22.479			-3.746
147701.000			-22.480			-3.747
147802.000			-22.480			-3.747
147901.000			-22.479			-3.746
148000.000			-22.479			-3.746
148101.000			-22.478			-3.746
148200.000			-22.478			-3.746
148301.000			-22.476			-3.746
148400.000			-22.476			-3.746
148500.000			-22.477			-3.746
148601.000			-22.476			-3.746
148701.000			-22.477			-3.746
148801.000			-22.476			-3.746
148901.000			-22.476			-3.746
149000.000			-22.476			-3.746
149100.000			-22.474			-3.746
149201.000			-22.474			-3.746
149300.000			-22.474			-3.746
149400.000			-22.474			-3.746
149501.000			-22.473			-3.746
149601.000			-22.474			-3.746
149701.000			-22.474			-3.746
149802.000			-22.474			-3.746
149900.000			-22.474			-3.746
150000.000			-22.472			-3.745
150101.000			-22.471			-3.745
150200.000			-22.471			-3.745
150300.000			-22.471			-3.745
150401.000			-22.471			-3.745
150500.000			-22.471			-3.745
150601.000			-22.470			-3.745
150702.000			-22.470			-3.745
150800.000			-22.470			-3.745
150900.000			-22.470			-3.745
151001.000			-22.469			-3.745
151100.000			-22.468			-3.745
151200.000			-22.468			-3.745
151301.000			-22.468			-3.745
151401.000			-22.469			-3.745
151502.000			-22.468			-3.745
151601.000			-22.468			-3.745
151700.000			-22.468			-3.745
151801.000			-22.468			-3.745
151900.000			-22.466			-3.744
152000.000			-22.465			-3.744
152101.000			-22.465			-3.744
152200.000			-22.464			-3.744
152300.000			-22.465			-3.744
152402.000			-22.464			-3.744
152501.000			-22.463			-3.744
152600.000			-22.464			-3.744
152701.000			-22.464			-3.744
152800.000			-22.464			-3.744
152900.000			-22.463			-3.744
153001.000			-22.462			-3.744
153100.000			-22.463			-3.744
153200.000			-22.463			-3.744
153302.000			-22.462			-3.744
153401.000			-22.462			-3.744
153501.000			-22.461			-3.744
153601.000			-22.461			-3.744
153700.000			-22.461			-3.744
153800.000			-22.461			-3.744
153901.000			-22.460			-3.743
154000.000			-22.460			-3.743
154100.000			-22.459			-3.743
154202.000			-22.458			-3.743
154301.000			-22.459			-3.743
154401.000			-22.459			-3.743
154501.000			-22.458			-3.743
154600.000			-22.458			-3.743
154701.000			-22.458			-3.743
154800.000			-22.458			-3.743
154900.000			-22.457			-3.743
155001.000			-22.457			-3.743
155100.000			-22.458			-3.743
155201.000			-22.455			-3.743
155302.000			-22.455			-3.742
155400.000			-22.455			-3.742
155500.000			-22.456			-3.743
155601.000			-22.456			-3.743
155700.000			-22.456			-3.743
155800.000			-22.455			-3.743
155901.000			-22.455			-3.742
156000.000			-22.454			-3.742
156101.000			-22.452			-3.742
156202.000			-22.452			-3.742
156301.000			-22.453			-3.742
156400.000			-22.453			-3.742
156501.000			-22.452			-3.742
156600.000			-22.452			-3.742
156700.000			-22.452			-3.742
156801.000			-22.451			-3.742
156900.000			-22.451			-3.742
157000.000			-22.450			-3.742
157102.000			-22.450			-3.742
157201.000			-22.450			-3.742
157300.000			-22.450			-3.742
157401.000			-22.450			-3.742
157500.000			-22.450			-3.742
157600.000			-22.449			-3.741
157701.000			-22.448			-3.741
157800.000			-22.448			-3.741
157901.000			-22.448			-3.741
158001.000			-22.448			-3.741
158101.000			-22.447			-3.741
158201.000			-22.448			-3.741
158300.000			-22.448			-3.741
158400.000			-22.448			-3.741
158501.000			-22.448			-3.741
158600.000			-22.446			-3.741
158700.000			-22.446			-3.741
158801.000			-22.446			-3.741
158901.000			-22.445			-3.741
159001.000			-22.444			-3.741
159102.000			-22.444			-3.741
159200.000			-22.444			-3.741
159300.000			-22.444			-3.741
159401.000			-22.444			-3.741
159500.000			-22.443			-3.741
159600.000			-22.442			-3.740
159701.000			-22.443			-3.741
159800.000			-22.443			-3.741
159901.000			-22.442			-3.740
160002.000			-22.441			-3.740
160100.000			-22.442			-3.740
160200.000			-22.441			-3.740
160301.000			-22.442			-3.740
160400.000			-22.440			-3.740
160500.000			-22.440			-3.740
160601.000			-22.441			-3.740
160700.000			-22.441			-3.740
160801.000			-22.440			-3.740
160902.000			-22.439			-3.740
161000.000			-22.439			-3.740
161101.000			-22.439			-3.740
161200.000			-22.437			-3.740
161300.000			-22.437			-3.740
161401.000			-22.437			-3.739
161500.000			-22.437			-3.740
161600.000			-22.438			-3.740
161702.000			-22.438			-3.740
161801.000			-22.437			-3.740
161900.000			-22.437			-3.739
162001.000			-22.437			-3.739
162100.000			-22.435			-3.739
162200.000			-22.435			-3.739
162301.000			-22.435			-3.739
162400.000			-22.435			-3.739
162500.000			-22.434			-3.739
162602.000			-22.434			-3.739
162701.000			-22.433			-3.739
162801.000			-22.433			-3.739
162901.000			-22.432			-3.739
163000.000			-22.432			-3.739
163100.000			-22.433			-3.739
163201.000			-22.433			-3.739
163300.000			-22.433			-3.739
163400.000			-22.432			-3.739
163502.000			-22.431			-3.739
163601.000			-22.431			-3.738
163701.000			-22.430			-3.738
163801.000			-22.430			-3.738
163900.000			-22.430			-3.738
164000.000			-22.429			-3.738
164101.000			-22.428			-3.738
164200.000			-22.428			-3.738
164301.000			-22.429			-3.738
164401.000			-22.429			-3.738
164501.000			-22.428			-3.738
164602.000			-22.428			-3.738
164700.000			-22.428			-3.738
164800.000			-22.428			-3.738
164901.000			-22.427			-3.738
165000.000			-22.427			-3.738
165100.000			-22.426			-3.738
165201.000			-22.426			-3.738
165300.000			-22.427			-3.738
165401.000			-22.426			-3.738
165502.000			-22.425			-3.738
165601.000			-22.426			-3.738
165700.000			-22.425			-3.738
165801.000			-22.424			-3.737
165900.000			-22.423			-3.737
166000.000			-22.423			-3.737
166101.000			-22.423			-3.737
166200.000			-22.423			-3.737
166301.000			-22.423			-3.737
166402.000			-22.423			-3.737
166501.000			-22.423			-3.737
166600.000			-22.423			-3.737
166701.000			-22.421			-3.737
166800.000			-22.421			-3.737
166900.000			-22.420			-3.737
167001.000			-22.421			-3.737
167100.000			-22.420			-3.737
167201.000			-22.420			-3.737
167302.000			-22.420			-3.737
167401.000			-22.420			-3.737
167501.000			-22.420			-3.737
167600.000			-22.419			-3.736
167700.000			-22.419			-3.736
167801.000			-22.419			-3.736
167900.000			-22.418			-3.736
168000.000			-22.419			-3.736
168101.000			-22.418			-3.736
168201.000			-22.417			-3.736
168301.000			-22.417			-3.736
168401.000			-22.417			-3.736
168500.000			-22.417			-3.736
168600.000			-22.417			-3.736
168701.000			-22.417			-3.736
168800.000			-22.417			-3.736
168900.000			-22.416			-3.736
169001.000			-22.415			-3.736
169101.000			-22.415			-3.736
169201.000			-22.415			-3.736
169301.000			-22.414			-3.736
169400.000			-22.413			-3.736
169500.000			-22.414			-3.736
169601.000			-22.415			-3.736
169700.000			-22.413			-3.736
169800.000			-22.413			-3.735
169901.000			-22.413			-3.736
170001.000			-22.413			-3.735
170101.000			-22.412			-3.735
170201.000			-22.412			-3.735
170300.000			-22.412			-3.735
170400.000			-22.411			-3.735
170501.000			-22.412			-3.735
170600.000			-22.412			-3.735
170701.000			-22.411			-3.735
170800.000			-22.411			-3.735
170901.000			-22.411			-3.735
171002.000			-22.410			-3.735
171100.000			-22.410			-3.735
171200.000			-22.410			-3.735
171301.000			-22.409			-3.735
171400.000			-22.408			-3.735
171500.000			-22.407			-3.735
171601.000			-22.409			-3.735
171700.000			-22.409			-3.735
171801.000			-22.408			-3.735
171902.000			-22.407			-3.734
172001.000			-22.407			-3.735
172100.000			-22.407			-3.735
172201.000			-22.406			-3.734
172300.000			-22.406			-3.734
172400.000			-22.406			-3.734
172501.000			-22.405			-3.734
172600.000			-22.405			-3.734
172701.000			-22.404			-3.734
172802.000			-22.404			-3.734
172901.000			-22.403			-3.734
173000.000			-22.404			-3.734
173101.000			-22.403			-3.734
173200.000			-22.403			-3.734
173300.000			-22.403			-3.734
173401.000			-22.403			-3.734
173500.000			-22.403			-3.734
173601.000			-22.403			-3.734
173702.000			-22.403			-3.734
173801.000			-22.402			-3.734
173901.000			-22.401			-3.734
174000.000			-22.399			-3.733
174100.000			-22.400			-3.733
174201.000			-22.399			-3.733
174300.000			-22.399			-3.733
174400.000			-22.399			-3.733
174501.000			-22.400			-3.733
174601.000			-22.399			-3.733
174701.000			-22.398			-3.733
174801.000			-22.399			-3.733
174900.000			-22.398			-3.733
175000.000			-22.398			-3.733
175101.000			-22.398			-3.733
175200.000			-22.397			-3.733
175300.000			-22.397			-3.733
175401.000			-22.397			-3.733
175501.000			-22.397			-3.733
175601.000			-22.397			-3.733
175702.000			-22.396			-3.733
175800.000			-22.396			-3.733
175900.000			-22.396			-3.733
176001.000			-22.396			-3.733
176100.000			-22.396			-3.733
176200.000			-22.395			-3.732
176301.000			-22.394			-3.732
176400.000			-22.394			-3.732
176501.000			-22.394			-3.732
176602.000			-22.395			-3.732
176700.000			-22.394			-3.732
176800.000			-22.392			-3.732
176901.000			-22.393			-3.732
177000.000			-22.393			-3.732
177101.000			-22.392			-3.732
177200.000			-22.392			-3.732
177300.000			-22.392			-3.732
177402.000			-22.391			-3.732
177501.000			-22.392			-3.732
177601.000			-22.391			-3.732
177701.000			-22.391			-3.732
177800.000			-22.391			-3.732
177900.000			-22.391			-3.732
178001.000			-22.391			-3.732
178100.000			-22.390			-3.732
178200.000			-22.389			-3.731
178301.000			-22.389			-3.732
178401.000			-22.388			-3.731
178501.000			-22.389			-3.731
178601.000			-22.389			-3.731
178700.000			-22.387			-3.731
178800.000			-22.387			-3.731
178901.000			-22.387			-3.731
179000.000			-22.387			-3.731
179100.000			-22.386			-3.731
179201.000			-22.386			-3.731
179300.000			-22.387			-3.731
179401.000			-22.387			-3.731
179502.000			-22.385			-3.731
179600.000			-22.385			-3.731
179700.000			-22.385			-3.731
179801.000			-22.384			-3.731
179900.000			-22.384			-3.731
180000.000			-22.383			-3.731
180101.000			-22.384			-3.731
180200.000			-22.384			-3.731
180302.000			-22.383			-3.730
180401.000			-22.383			-3.731
180501.000			-22.383			-3.731
180601.000			-22.383			-3.730
180700.000			-22.382			-3.730
180800.000			-22.382			-3.730
180901.000			-22.382			-3.730
181000.000			-22.382			-3.730
181100.000			-22.382			-3.730
181201.000			-22.381			-3.730
181301.000			-22.380			-3.730
181401.000			-22.380			-3.730
181501.000			-22.381			-3.730
181600.000			-22.380			-3.730
181700.000			-22.380			-3.730
181801.000			-22.380			-3.730
181900.000			-22.380			-3.730
182000.000			-22.379			-3.730
182101.000			-22.379			-3.730
182201.000			-22.379			-3.730
182301.000			-22.378			-3.730
182401.000			-22.378			-3.730
182500.000			-22.377			-3.730
182600.000			-22.377			-3.729
182701.000			-22.377			-3.729
182800.000			-22.377			-3.729
182900.000			-22.376			-3.729
183001.000			-22.376			-3.729
183101.000			-22.376			-3.729
183201.000			-22.377			-3.729
183302.000			-22.376			-3.729
183400.000			-22.375			-3.729
183501.000			-22.375			-3.729
183600.000			-22.376			-3.729
183700.000			-22.375			-3.729
183801.000			-22.374			-3.729
183900.000			-22.374			-3.729
184000.000			-22.373			-3.729
184102.000			-22.373			-3.729
184201.000			-22.371			-3.729
184300.000			-22.371			-3.729
184401.000			-22.372			-3.729
184500.000			-22.372			-3.729
184600.000			-22.373			-3.729
184701.000			-22.372			-3.729
184800.000			-22.371			-3.729
184900.000			-22.371			-3.729
185002.000			-22.371			-3.728
185101.000			-22.370			-3.728
185201.000			-22.371			-3.728
185301.000			-22.371			-3.728
185400.000			-22.370			-3.728
185500.000			-22.370			-3.728
185601.000			-22.368			-3.728
185700.000			-22.369			-3.728
185800.000			-22.369			-3.728
185901.000			-22.370			-3.728
186001.000			-22.369			-3.728
186101.000			-22.369			-3.728
186201.000			-22.369			-3.728
186300.000			-22.367			-3.728
186400.000			-22.368			-3.728
186501.000			-22.367			-3.728
186600.000			-22.366			-3.728
186701.000			-22.366			-3.728
186800.000			-22.367			-3.728
186900.000			-22.366			-3.728
187002.000			-22.364			-3.727
187101.000			-22.364			-3.727
187200.000			-22.364			-3.727
187301.000			-22.365			-3.727
187400.000			-22.365			-3.727
187500.000			-22.364			-3.727
187601.000			-22.364			-3.727
187700.000			-22.363			-3.727
187800.000			-22.363			-3.727
187902.000			-22.364			-3.727
188001.000			-22.364			-3.727
188101.000			-22.363			-3.727
188201.000			-22.363			-3.727
188300.000			-22.362			-3.727
188400.000			-22.362			-3.727
188501.000			-22.362			-3.727
188600.000			-22.361			-3.727
188700.000			-22.362			-3.727
188802.000			-22.361			-3.727
188901.000			-22.360			-3.727
189001.000			-22.360			-3.727
189101.000			-22.360			-3.727
189200.000			-22.359			-3.727
189300.000			-22.360			-3.727
189401.000			-22.361			-3.727
189500.000			-22.359			-3.727
189600.000			-22.359			-3.727
189701.000			-22.358			-3.726
189801.000			-22.358			-3.726
189902.000			-22.358			-3.726
190001.000			-22.358			-3.726
190100.000			-22.358			-3.726
190201.000			-22.357			-3.726
190300.000			-22.357			-3.726
190400.000			-22.357			-3.726
190501.000			-22.357			-3.726
190600.000			-22.357			-3.726
190700.000			-22.357			-3.726
190802.000			-22.356			-3.726
190901.000			-22.356			-3.726
191000.000			-22.355			-3.726
191101.000			-22.356			-3.726
191200.000			-22.355			-3.726
191300.000			-22.354			-3.726
191401.000			-22.355			-3.726
191500.000			-22.355			-3.726
191600.000			-22.354			-3.726
191702.000			-22.354			-3.726
191801.000			-22.355			-3.726
191901.000			-22.353			-3.726
192001.000			-22.353			-3.725
192100.000			-22.352			-3.725
192200.000			-22.351			-3.725
192301.000			-22.352			-3.725
192400.000			-22.353			-3.726
192500.000			-22.352			-3.725
192602.000			-22.352			-3.725
192701.000			-22.351			-3.725
192801.000			-22.351			-3.725
192901.000			-22.351			-3.725
193000.000			-22.350			-3.725
193101.000			-22.349			-3.725
193200.000			-22.350			-3.725
193300.000			-22.350			-3.725
193401.000			-22.349			-3.725
193500.000			-22.350			-3.725
193601.000			-22.348			-3.725
193702.000			-22.348			-3.725
193800.000			-22.349			-3.725
193900.000			-22.348			-3.725
194001.000			-22.348			-3.725
194100.000			-22.348			-3.725
194200.000			-22.348			-3.725
194301.000			-22.348			-3.725
194400.000			-22.348			-3.725
194501.000			-22.347			-3.724
194602.000			-22.346			-3.724
194701.000			-22.346			-3.724
194800.000			-22.346			-3.724
194901.000			-22.346			-3.724
195000.000			-22.345			-3.724
195100.000			-22.345			-3.724
195201.000			-22.344			-3.724
195300.000			-22.345			-3.724
195400.000			-22.345			-3.724
195502.000			-22.344			-3.724
195601.000			-22.343			-3.724
195700.000			-22.344			-3.724
195801.000			-22.344			-3.724
195900.000			-22.344			-3.724
196000.000			-22.343			-3.724
196101.000			-22.343			-3.724
196200.000			-22.343			-3.724
196301.000			-22.343			-3.724
196401.000			-22.342			-3.724
196501.000			-22.342			-3.724
196601.000			-22.342			-3.724
196700.000			-22.342			-3.724
196800.000			-22.342			-3.724
196901.000			-22.341			-3.724
197000.000			-22.340			-3.723
197100.000			-22.340			-3.723
197201.000			-22.340			-3.723
197301.000			-22.340			-3.723
197401.000			-22.341			-3.724
197502.000			-22.340			-3.723
197600.000			-22.340			-3.723
197700.000			-22.340			-3.723
197801.000			-22.339			-3.723
197900.000			-22.339			-3.723
198000.000			-22.339			-3.723
198101.000			-22.338			-3.723
198200.000			-22.338			-3.723
198301.000			-22.338			-3.723
198402.000			-22.338			-3.723
198500.000			-22.338			-3.723
198600.000			-22.337			-3.723
198701.000			-22.337			-3.723
198800.000			-22.337			-3.723
198900.000			-22.337			-3.723
199001.000			-22.335			-3.723
199100.000			-22.334			-3.722
199200.000			-22.335			-3.723
199302.000			-22.335			-3.722
199401.000			-22.336			-3.723
199501.000			-22.335			-3.723
199600.000			-22.334			-3.722
199700.000			-22.334			-3.722
199801.000			-22.335			-3.722
199900.000			-22.335			-3.722
200000.000			-22.335			-3.722
200101.000			-22.333			-3.722
200201.000			-22.333			-3.722
200301.000			-22.333			-3.722
200401.000			-22.332			-3.722
200500.000			-22.331			-3.722
200600.000			-22.332			-3.722
200701.000			-22.332			-3.722
200800.000			-22.332			-3.722
200900.000			-22.332			-3.722
201001.000			-22.331			-3.722
201101.000			-22.331			-3.722
201201.000			-22.330			-3.722
201301.000			-22.330			-3.722
201400.000			-22.330			-3.722
201500.000			-22.330			-3.722
201601.000			-22.330			-3.722
201700.000			-22.330			-3.722
201800.000			-22.330			-3.722
201901.000			-22.328			-3.721
202001.000			-22.328			-3.721
202101.000			-22.329			-3.722
202201.000			-22.329			-3.722
202300.000			-22.329			-3.721
202400.000			-22.328			-3.721
202501.000			-22.327			-3.721
202600.000			-22.327			-3.721
202701.000			-22.327			-3.721
202800.000			-22.327			-3.721
202901.000			-22.327			-3.721
203002.000			-22.327			-3.721
203100.000			-22.326			-3.721
203200.000			-22.326			-3.721
203301.000			-22.326			-3.721
203400.000			-22.327			-3.721
203500.000			-22.327			-3.721
203601.000			-22.326			-3.721
203700.000			-22.325			-3.721
203801.000			-22.325			-3.721
203902.000			-22.325			-3.721
204000.000			-22.325			-3.721
204100.000			-22.324			-3.721
204201.000			-22.324			-3.721
204300.000			-22.323			-3.721
204400.000			-22.323			-3.720
204501.000			-22.323			-3.721
204601.000			-22.324			-3.721
204701.000			-22.324			-3.721
204802.000			-22.323			-3.720
204900.000			-22.323			-3.720
205000.000			-22.322			-3.720
205101.000			-22.322			-3.720
205200.000			-22.323			-3.720
205300.000			-22.322			-3.720
205401.000			-22.322			-3.720
205501.000			-22.321			-3.720
205601.000			-22.321			-3.720
205702.000			-22.320			-3.720
205800.000			-22.320			-3.720
205901.000			-22.319			-3.720
206000.000			-22.320			-3.720
206100.000			-22.321			-3.720
206201.000			-22.319			-3.720
206300.000			-22.319			-3.720
206400.000			-22.319			-3.720
206502.000			-22.319			-3.720
206601.000			-22.318			-3.720
206700.000			-22.320			-3.720
206801.000			-22.318			-3.720
206900.000			-22.318			-3.720
207000.000			-22.318			-3.720
207101.000			-22.317			-3.720
207200.000			-22.317			-3.719
207300.000			-22.316			-3.719
207402.000			-22.316			-3.719
207501.000			-22.316			-3.719
207600.000			-22.317			-3.720
207701.000			-22.317			-3.719
207800.000			-22.315			-3.719
207900.000			-22.315			-3.719
208001.000			-22.315			-3.719
208100.000			-22.316			-3.719
208200.000			-22.315			-3.719
208302.000			-22.314			-3.719
208401.000			-22.314			-3.719
208500.000			-22.315			-3.719
208601.000			-22.314			-3.719
208700.000			-22.313			-3.719
208800.000			-22.313			-3.719
208901.000			-22.313			-3.719
209000.000			-22.314			-3.719
209101.000			-22.313			-3.719
209201.000			-22.313			-3.719
209301.000			-22.312			-3.719
209401.000			-22.312			-3.719
209500.000			-22.312			-3.719
209600.000			-22.311			-3.719
209701.000			-22.311			-3.719
209800.000			-22.311			-3.718
209900.000			-22.311			-3.719
210001.000			-22.311			-3.718
210101.000			-22.311			-3.718
210201.000			-22.310			-3.718
210301.000			-22.309			-3.718
210400.000			-22.309			-3.718
210500.000			-22.309			-3.718
210601.000			-22.309			-3.718
210700.000			-22.309			-3.718
210800.000			-22.308			-3.718
210902.000			-22.308			-3.718
211001.000			-22.307			-3.718
211101.000			-22.307			-3.718
211201.000			-22.308			-3.718
211300.000			-22.307			-3.718
211400.000			-22.307			-3.718
211501.000			-22.308			-3.718
211600.000			-22.307			-3.718
211700.000			-22.307			-3.718
211802.000			-22.307			-3.718
211901.000			-22.307			-3.718
212001.000			-22.306			-3.718
212101.000			-22.306			-3.718
212200.000			-22.306			-3.718
212301.000			-22.305			-3.717
212400.000			-22.304			-3.717
212500.000			-22.305			-3.717
212601.000			-22.305			-3.717
212701.000			-22.304			-3.717
212801.000			-22.304			-3.717
212902.000			-22.304			-3.717
213000.000			-22.303			-3.717
213100.000			-22.303			-3.717
213201.000			-22.303			-3.717
213300.000			-22.304			-3.717
213400.000			-22.304			-3.717
213501.000			-22.303			-3.717
213601.000			-22.302			-3.717
213701.000			-22.301			-3.717
213801.000			-22.302			-3.717
213900.000			-22.303			-3.717
214000.000			-22.302			-3.717
214101.000			-22.301			-3.717
214200.000			-22.301			-3.717
214300.000			-22.301			-3.717
214401.000			-22.302			-3.717
214501.000			-22.299			-3.717
214601.000			-22.300			-3.717
214701.000			-22.299			-3.717
214800.000			-22.299			-3.716
214900.000			-22.300			-3.717
215001.000			-22.301			-3.717
215100.000			-22.299			-3.717
215200.000			16.792			2.799
215301.000			-206.398			-34.400
215401.000			-22.298			-3.716
215502.000			-22.298			-3.716
215601.000			-22.298			-3.716
215700.000			-22.298			-3.716
215801.000			-22.297			-3.716
215900.000			-22.297			-3.716
216000.000			-22.296			-3.716
216101.000			-22.297			-3.716
216200.000			-22.297			-3.716
216300.000			-22.296			-3.716
216402.000			-22.296			-3.716
216501.000			-22.296			-3.716
216600.000			-22.296			-3.716
216701.000			-22.295			-3.716
216800.000			-22.295			-3.716
216900.000			-22.296			-3.716
217001.000			-22.295			-3.716
217100.000			-22.296			-3.716
217200.000			-22.296			-3.716
217302.000			-22.294			-3.716
217401.000			-22.295			-3.716
217500.000			-22.295			-3.716
217601.000			-22.294			-3.716
217700.000			-22.293			-3.715
217800.000			-22.292			-3.715
217901.000			-22.293			-3.715
218000.000			-22.293			-3.716
218100.000			-22.292			-3.715
218202.000			-22.293			-3.716
218301.000			-22.294			-3.716
218401.000			-22.292			-3.715
218501.000			-22.290			-3.715
218600.000			-22.290			-3.715
218701.000			-22.291			-3.715
218800.000			-22.291			-3.715
218900.000			-22.290			-3.715
219001.000			-22.290			-3.715
219101.000			-22.291			-3.715
219201.000			-22.291			-3.715
219302.000			-22.290			-3.715
219400.000			-22.290			-3.715
219500.000			-22.289			-3.715
219601.000			-22.289			-3.715
219700.000			-22.288			-3.715
219800.000			-22.288			-3.715
219901.000			-22.289			-3.715
220000.000			-22.289			-3.715
220101.000			-22.288			-3.715
220202.000			-22.288			-3.715
220300.000			-22.289			-3.715
220400.000			-22.288			-3.715
220501.000			-22.287			-3.714
220600.000			-22.287			-3.715
220700.000			-22.287			-3.715
220801.000			-22.286			-3.714
220900.000			-22.285			-3.714
221001.000			-22.286			-3.714
221102.000			-22.284			-3.714
221201.000			-22.285			-3.714
221300.000			-22.285			-3.714
221401.000			-22.285			-3.714
221500.000			-22.285			-3.714
221600.000			-22.284			-3.714
221701.000			-22.283			-3.714
221800.000			-22.283			-3.714
221902.000			-22.283			-3.714
222001.000			-22.283			-3.714
222101.000			-22.283			-3.714
222201.000			-22.283			-3.714
222300.000			-22.284			-3.714
222400.000			-22.283			-3.714
222501.000			-22.282			-3.714
222600.000			-22.282			-3.714
222700.000			-22.281			-3.714
222802.000			-22.282			-3.714
222901.000			-22.282			-3.714
223001.000			-22.282			-3.714
223101.000			-22.282			-3.714
223200.000			-22.282			-3.714
223300.000			-22.282			-3.714
223401.000			-22.280			-3.713
223500.000			-22.279			-3.713
223600.000			-22.280			-3.713
223702.000			-22.281			-3.713
223801.000			-22.280			-3.713
223901.000			-22.279			-3.713
224001.000			-22.280			-3.713
224100.000			-22.280			-3.713
224200.000			-22.280			-3.713
224301.000			-22.279			-3.713
224400.000			-22.278			-3.713
224500.000			-22.279			-3.713
224601.000			-22.279			-3.713
224701.000			-22.277			-3.713
224801.000			-22.277			-3.713
224901.000			-22.278			-3.713
225000.000			-22.277			-3.713
225101.000			-22.277			-3.713
225200.000			-22.277			-3.713
225300.000			-22.278			-3.713
225401.000			-22.276			-3.713
225500.000			-22.276			-3.713
225601.000			-22.275			-3.712
225702.000			-22.275			-3.712
225800.000			-22.276			-3.713
225900.000			-22.275			-3.713
226001.000			-22.275			-3.713
226100.000			-22.276			-3.713
226200.000			-22.275			-3.713
226301.000			-22.275			-3.712
226400.000			-22.275			-3.712
226501.000			-22.273			-3.712
226602.000			-22.274			-3.712
226701.000			-22.273			-3.712
226800.000			-22.273			-3.712
226901.000			-22.272			-3.712
227000.000			-22.272			-3.712
227100.000			-22.273			-3.712
227201.000			-22.272			-3.712
227300.000			-22.272			-3.712
227400.000			-22.273			-3.712
227502.000			-22.273			-3.712
227601.000			-22.271			-3.712
227700.000			-22.270			-3.712
227801.000			-22.271			-3.712
227900.000			-22.270			-3.712
228000.000			-22.271			-3.712
228101.000			-22.271			-3.712
228200.000			-22.270			-3.712
228301.000			-22.271			-3.712
228401.000			-22.271			-3.712
228501.000			-22.270			-3.712
228601.000			-22.269			-3.712
228700.000			-22.270			-3.712
228800.000			-22.269			-3.712
228901.000			-22.269			-3.711
229000.000			-22.269			-3.711
229100.000			-22.268			-3.711
229201.000			-22.268			-3.711
229301.000			-22.268			-3.711
229401.000			-22.268			-3.711
229502.000			-22.268			-3.711
229600.000			-22.269			-3.711
229700.000			-22.268			-3.711
229801.000			-22.268			-3.711
229900.000			-22.266			-3.711
230000.000			-22.265			-3.711
230101.000			-22.266			-3.711
230200.000			-22.267			-3.711
230301.000			-22.266			-3.711
230402.000			-22.266			-3.711
230500.000			-22.266			-3.711
230600.000			-22.265			-3.711
230701.000			-22.265			-3.711
230800.000			-22.265			-3.711
230900.000			-22.264			-3.711
231001.000			-22.264			-3.711
231100.000			-22.264			-3.711
231201.000			-22.265			-3.711
231302.000			-22.263			-3.711
231400.000			-22.264			-3.711
231501.000			-22.263			-3.710
231600.000			-22.263			-3.710
231700.000			-22.264			-3.711
231801.000			-22.263			-3.710
231900.000			-22.262			-3.710
232000.000			-22.262			-3.710
232102.000			-22.263			-3.710
232201.000			-22.262			-3.710
232300.000			-22.261			-3.710
232401.000			-22.261			-3.710
232500.000			-22.262			-3.710
232600.000			-22.261			-3.710
232701.000			-22.261			-3.710
232800.000			-22.261			-3.710
232900.000			-22.260			-3.710
233002.000			-22.260			-3.710
233101.000			-22.259			-3.710
233200.000			-22.259			-3.710
233301.000			-22.260			-3.710
233400.000			-22.259			-3.710
233500.000			-22.259			-3.710
233601.000			-22.258			-3.710
233700.000			-22.259			-3.710
233800.000			-22.258			-3.710
233902.000			-22.258			-3.710
234001.000			-22.257			-3.710
234100.000			-22.258			-3.710
234201.000			-22.257			-3.709
234300.000			-22.257			-3.709
234400.000			-22.257			-3.709
234501.000			-22.258			-3.710
234600.000			-22.257			-3.709
234701.000			-22.256			-3.709
234801.000			-22.257			-3.709
234901.000			-22.257			-3.710
235002.000			-22.257			-3.709
235100.000			-22.256			-3.709
235200.000			-22.255			-3.709
235301.000			-22.255			-3.709
235400.000			-22.255			-3.709
235500.000			-22.255			-3.709
235601.000			-22.255			-3.709
235701.000			-22.255			-3.709
235801.000			-22.254			-3.709
235902.000			-22.254			-3.709
236000.000			-22.253			-3.709
236100.000			-22.253			-3.709
236201.000			-22.252			-3.709
236300.000			-22.253			-3.709
236400.000			-22.254			-3.709
236501.000			-22.253			-3.709
236600.000			-22.252			-3.709
236701.000			-22.252			-3.709
236802.000			-22.252			-3.709
236900.000			-22.252			-3.709
237000.000			-22.251			-3.709
237101.000			-22.252			-3.709
237200.000			-22.251			-3.709
237300.000			-22.251			-3.708
237401.000			-22.250			-3.708
237500.000			-22.250			-3.708
237601.000			-22.250			-3.708
237702.000			-22.249			-3.708
237800.000			-22.249			-3.708
237901.000			-22.250			-3.708
238000.000			-22.250			-3.708
238100.000			-22.251			-3.708
238201.000			-22.250			-3.708
238300.000			-22.249			-3.708
238400.000			-22.248			-3.708
238502.000			-22.248			-3.708
238601.000			-22.248			-3.708
238700.000			-22.247			-3.708
238801.000			-22.248			-3.708
238900.000			-22.249			-3.708
239000.000			-22.248			-3.708
239101.000			-22.248			-3.708
239200.000			-22.248			-3.708
239300.000			-22.247			-3.708
239402.000			-22.247			-3.708
239501.000			-22.246			-3.708
239601.000			-22.247			-3.708
239701.000			-22.247			-3.708
239800.000			-22.246			-3.708
239900.000			-22.245			-3.708
240001.000			-22.246			-3.708
240100.000			-22.246			-3.708
240200.000			-22.245			-3.708
240302.000			-22.245			-3.708
240401.000			-22.245			-3.707
240501.000			-22.245			-3.707
240601.000			-22.244			-3.707
240700.000			-22.244			-3.707
240800.000			-22.245			-3.707
240901.000			-22.245			-3.707
241000.000			-22.244			-3.707
241101.000			-22.244			-3.707
241201.000			-22.243			-3.707
241301.000			-22.242			-3.707
241402.000			-22.243			-3.707
241500.000			-22.244			-3.707
241600.000			-22.243			-3.707
241701.000			-22.243			-3.707
241800.000			-22.242			-3.707
241900.000			-22.242			-3.707
242001.000			-22.242			-3.707
242100.000			-22.242			-3.707
242201.000			-22.242			-3.707
242302.000			-22.241			-3.707
242400.000			-22.241			-3.707
242500.000			-22.241			-3.707
242601.000			-22.241			-3.707
242700.000			-22.241			-3.707
242800.000			-22.241			-3.707
242901.000			-22.240			-3.707
243000.000			-22.238			-3.706
243101.000			-22.239			-3.707
243202.000			-22.240			-3.707
243300.000			-22.239			-3.706
243400.000			-22.239			-3.707
243501.000			-22.238			-3.706
243600.000			-22.237			-3.706
243700.000			-22.237			-3.706
243801.000			-22.237			-3.706
243900.000			-22.237			-3.706
244001.000			-22.238			-3.706
244102.000			-22.238			-3.706
244201.000			-22.237			-3.706
244301.000			-22.236			-3.706
244400.000			-22.236			-3.706
244500.000			-22.236			-3.706
244601.000			-22.236			-3.706
244700.000			-22.236			-3.706
244800.000			-22.236			-3.706
244902.000			-22.237			-3.706
245001.000			-22.236			-3.706
245101.000			-22.236			-3.706
245201.000			-22.236			-3.706
245300.000			-22.235			-3.706
245400.000			-22.234			-3.706
245501.000			-22.234			-3.706
245600.000			-22.234			-3.706
245700.000			-22.236			-3.706
245802.000			-22.234			-3.706
245901.000			-22.233			-3.706
246001.000			-22.233			-3.706
246101.000			-22.234			-3.706
246200.000			-22.234			-3.706
246300.000			-22.234			-3.706
246401.000			-22.233			-3.705
246500.000			-22.233			-3.705
246600.000			-22.231			-3.705
246702.000			-22.232			-3.705
246801.000			-22.231			-3.705
246901.000			-22.232			-3.705
247001.000			-22.234			-3.706
247100.000			-22.231			-3.705
247200.000			-22.231			-3.705
247301.000			-22.231			-3.705
247400.000			-22.231			-3.705
247501.000			-22.231			-3.705
247600.000			-22.231			-3.705
247701.000			-22.231			-3.705
247802.000			-22.230			-3.705
247900.000			-22.231			-3.705
248000.000			-22.229			-3.705
248101.000			-22.229			-3.705
248200.000			-22.229			-3.705
248300.000			-22.230			-3.705
248401.000			-22.230			-3.705
248500.000			-22.229			-3.705
248601.000			-22.229			-3.705
248702.000			-22.229			-3.705
248800.000			-22.229			-3.705
248900.000			-22.229			-3.705
249001.000			-22.228			-3.705
249100.000			-22.228			-3.705
249200.000			-22.227			-3.705
249301.000			-22.227			-3.705
249400.000			-22.228			-3.705
249501.000			-22.227			-3.705
249602.000			-22.228			-3.705
249701.000			-22.226			-3.704
249800.000			-22.226			-3.704
249901.000			-22.226			-3.704
250000.000			-22.227			-3.704
250100.000			-22.227			-3.704
250201.000			-22.227			-3.704
250300.000			-22.226			-3.704
250401.000			-22.226			-3.704
250502.000			-22.225			-3.704
250601.000			-22.225			-3.704
250701.000			-22.225			-3.704
250800.000			-22.225			-3.704
250900.000			-22.224			-3.704
251001.000			-22.224			-3.704
251100.000			-22.224			-3.704
251200.000			-22.224			-3.704
251302.000			-22.223			-3.704
251401.000			-22.224			-3.704
251501.000			-22.223			-3.704
251601.000			-22.223			-3.704
251700.000			-22.223			-3.704
251800.000			-22.223			-3.704
251901.000			-22.223			-3.704
252000.000			-22.223			-3.704
252100.000			-22.222			-3.704
252202.000			-22.223			-3.704
252301.000			-22.223			-3.704
252401.000			-22.222			-3.704
252501.000			-22.222			-3.704
252600.000			-22.222			-3.704
252700.000			-22.221			-3.704
252801.000			-22.221			-3.703
252900.000			-22.220			-3.703
253000.000			-22.220			-3.703
253102.000			-22.220			-3.703
253201.000			-22.221			-3.703
253301.000			-22.220			-3.703
253401.000			-22.219			-3.703
253500.000			-22.220			-3.703
253600.000			-22.220			-3.703
253701.000			-22.220			-3.703
253800.000			-22.219			-3.703
253901.000			-22.218			-3.703
254001.000			-22.218			-3.703
254101.000			-22.219			-3.703
254202.000			-22.218			-3.703
254300.000			-22.218			-3.703
254400.000			-22.218			-3.703
254501.000			-22.217			-3.703
254600.000			-22.216			-3.703
254700.000			-22.217			-3.703
254801.000			-22.218			-3.703
254901.000			-22.217			-3.703
255001.000			-22.216			-3.703
255102.000			-22.216			-3.703
255200.000			-22.217			-3.703
255300.000			-22.216			-3.703
255401.000			-22.215			-3.703
255500.000			-22.215			-3.703
255600.000			-22.215			-3.702
255701.000			-22.215			-3.702
255801.000			-22.216			-3.703
255901.000			-22.215			-3.702
256002.000			-22.215			-3.702
256100.000			-22.215			-3.702
256200.000			-22.215			-3.702
256301.000			-22.214			-3.702
256400.000			-22.214			-3.702
256500.000			-22.213			-3.702
256601.000			-22.213			-3.702
256700.000			-22.213			-3.702
256801.000			-22.213			-3.702
256902.000			-22.213			-3.702
257000.000			-22.212			-3.702
257101.000			-22.213			-3.702
257200.000			-22.213			-3.702
257300.000			-22.212			-3.702
257401.000			-22.211			-3.702
257500.000			-22.212			-3.702
257600.000			-22.212			-3.702
257702.000			-22.212			-3.702
257801.000			-22.211			-3.702
257900.000			-22.210			-3.702
258001.000			-22.210			-3.702
258100.000			-22.210			-3.702
258200.000			-22.210			-3.702
258301.000			-22.209			-3.702
258400.000			-22.209			-3.702
258500.000			-22.210			-3.702
258602.000			-22.210			-3.702
258701.000			-22.210			-3.702
258800.000			-22.210			-3.702
258901.000			-22.209			-3.701
259000.000			-22.208			-3.701
259100.000			-22.209			-3.701
259201.000			-22.208			-3.701
259300.000			-22.209			-3.701
259400.000			-22.207			-3.701
259502.000			-22.208			-3.701
259601.000			-22.208			-3.701
259701.000			-22.209			-3.702
259801.000			-22.209			-3.701
259900.000			-22.208			-3.701
260000.000			-22.208			-3.701
260101.000			-22.207			-3.701
260200.000			-22.207			-3.701
260301.000			-22.207			-3.701
260400.000			-22.207			-3.701
260501.000			-22.207			-3.701
260602.000			-22.206			-3.701
260700.000			-22.206			-3.701
260800.000			-22.206			-3.701
260901.000			-22.205			-3.701
261000.000			-22.205			-3.701
261100.000			-22.205			-3.701
261201.000			-22.205			-3.701
261300.000			-22.204			-3.701
261401.000			-22.204			-3.701
261502.000			-22.204			-3.701
261600.000			-22.203			-3.701
261700.000			-22.203			-3.701
261801.000			-22.204			-3.701
261900.000			-22.204			-3.701
262000.000			-22.203			-3.701
262101.000			-22.202			-3.700
262201.000			-22.203			-3.700
262301.000			-22.202			-3.700
262402.000			-22.201			-3.700
262500.000			-22.201			-3.700
262600.000			-22.201			-3.700
262701.000			-22.201			-3.700
262800.000			-22.201			-3.700
262900.000			-22.202			-3.700
263001.000			-22.200			-3.700
263101.000			-22.200			-3.700
263201.000			-22.201			-3.700
263301.000			-22.201			-3.700
263400.000			-22.201			-3.700
263501.000			-22.200			-3.700
263600.000			-22.200			-3.700
263700.000			-22.201			-3.700
263801.000			-22.199			-3.700
263900.000			-22.199			-3.700
264001.000			-22.199			-3.700
264102.000			-22.199			-3.700
264201.000			-22.199			-3.700
264300.000			-22.198			-3.700
264401.000			-22.198			-3.700
264500.000			-22.198			-3.700
264600.000			-22.199			-3.700
264701.000			-22.199			-3.700
264800.000			-22.198			-3.700
264900.000			-22.197			-3.700
265002.000			-22.198			-3.700
265101.000			-22.198			-3.700
265200.000			-22.196			-3.699
265301.000			-22.196			-3.699
265400.000			-22.196			-3.699
265500.000			-22.197			-3.699
265601.000			-22.196			-3.699
265700.000			-22.196			-3.699
265800.000			-22.196			-3.699
265902.000			-22.195			-3.699
266001.000			-22.196			-3.699
266101.000			-22.195			-3.699
266201.000			-22.195			-3.699
266300.000			-22.196			-3.699
266400.000			-22.197			-3.699
266501.000			-22.195			-3.699
266600.000			-22.195			-3.699
266701.000			-22.195			-3.699
266800.000			-22.194			-3.699
266901.000			-22.194			-3.699
267002.000			-22.193			-3.699
267100.000			-22.193			-3.699
267200.000			-22.193			-3.699
267301.000			-22.193			-3.699
267400.000			-22.193			-3.699
267500.000			-22.194			-3.699
267601.000			-22.193			-3.699
267700.000			-22.192			-3.699
267801.000			-22.192			-3.699
267902.000			-22.192			-3.699
268001.000			-22.191			-3.699
268100.000			-22.192			-3.699
268201.000			-22.192			-3.699
268300.000			-22.191			-3.699
268400.000			-22.191			-3.698
268501.000			-22.190			-3.698
268600.000			-22.191			-3.699
268700.000			-22.191			-3.699
268802.000			-22.190			-3.698
268901.000			-22.190			-3.698
269000.000			-22.190			-3.698
269101.000			-22.190			-3.698
269200.000			-22.190			-3.698
269300.000			-22.190			-3.698
269401.000			-22.190			-3.698
269500.000			-22.189			-3.698
269600.000			-22.190			-3.698
269702.000			-22.189			-3.698
269801.000			-22.188			-3.698
269902.000			-22.187			-3.698
270000.000			-22.188			-3.698
270100.000			-22.187			-3.698
270201.000			-22.188			-3.698
270300.000			-22.187			-3.698
270400.000			-22.187			-3.698
270501.000			-22.188			-3.698
270600.000			-22.188			-3.698
270701.000			-22.188			-3.698
270802.000			-22.187			-3.698
270900.000			-22.186			-3.698
271000.000			-22.186			-3.698
271101.000			-22.186			-3.698
271200.000			-22.186			-3.698
271300.000			-22.186			-3.698
271401.000			-22.185			-3.698
271500.000			-22.185			-3.697
271601.000			-22.185			-3.698
271702.000			-22.185			-3.698
271801.000			-22.184			-3.697
271900.000			-22.184			-3.697
272001.000			-22.184			-3.697
272100.000			-22.184			-3.697
272200.000			-22.184			-3.697
272301.000			-22.184			-3.697
272400.000			-22.184			-3.697
272501.000			-22.184			-3.697
272602.000			-22.184			-3.697
272701.000			-22.183			-3.697
272800.000			-22.182			-3.697
272901.000			-22.183			-3.697
273000.000			-22.183			-3.697
273101.000			-22.183			-3.697
273200.000			-22.182			-3.697
273300.000			-22.181			-3.697
273402.000			-22.182			-3.697
273501.000			-22.182			-3.697
273601.000			-22.181			-3.697
273701.000			-22.182			-3.697
273800.000			-22.181			-3.697
273900.000			-22.181			-3.697
274001.000			-22.180			-3.697
274100.000			-22.180			-3.697
274200.000			-22.180			-3.697
274302.000			-22.180			-3.697
274401.000			-22.180			-3.697
274501.000			-22.179			-3.697
274601.000			-22.179			-3.696
274700.000			-22.179			-3.696
274800.000			-22.180			-3.697
274901.000			-22.180			-3.697
275000.000			-22.179			-3.697
275100.000			-22.178			-3.696
275201.000			-22.178			-3.696
275301.000			-22.178			-3.696
275401.000			-22.180			-3.697
275501.000			-22.178			-3.696
275600.000			-22.178			-3.696
275700.000			-22.178			-3.696
275801.000			-22.178			-3.696
275900.000			-22.178			-3.696
276000.000			-22.177			-3.696
276101.000			-22.177			-3.696
276201.000			-22.177			-3.696
276302.000			-22.175			-3.696
276401.000			-22.176			-3.696
276500.000			-22.177			-3.696
276601.000			-22.176			-3.696
276700.000			-22.176			-3.696
276800.000			-22.175			-3.696
276901.000			-22.174			-3.696
277000.000			-22.176			-3.696
277100.000			-22.176			-3.696
277202.000			-22.175			-3.696
277301.000			-22.175			-3.696
277400.000			-22.175			-3.696
277501.000			-22.175			-3.696
277600.000			-22.174			-3.696
277700.000			-22.174			-3.696
277801.000			-22.174			-3.696
277900.000			-22.173			-3.696
278000.000			-22.173			-3.695
278102.000			-22.173			-3.695
278201.000			-22.173			-3.696
278301.000			-22.173			-3.695
278401.000			-22.173			-3.695
278500.000			-22.173			-3.695
278600.000			-22.173			-3.696
278701.000			-22.173			-3.696
278800.000			-22.172			-3.695
278900.000			-22.172			-3.695
279001.000			-22.172			-3.695
279101.000			-22.172			-3.695
279201.000			-22.172			-3.695
279301.000			-22.171			-3.695
279400.000			-22.170			-3.695
279501.000			-22.171			-3.695
279600.000			-22.171			-3.695
279700.000			-22.170			-3.695
279801.000			-22.170			-3.695
279900.000			-22.171			-3.695
280000.000			-22.171			-3.695
280102.000			-22.171			-3.695
280201.000			-22.171			-3.695
280300.000			-22.170			-3.695
280401.000			-22.169			-3.695
280500.000			-22.169			-3.695
280600.000			-22.169			-3.695
280701.000			-22.169			-3.695
280800.000			-22.169			-3.695
280900.000			-22.169			-3.695
281002.000			-22.168			-3.695
281101.000			-22.168			-3.695
281200.000			-22.168			-3.695
281301.000			-22.167			-3.695
281400.000			-22.167			-3.695
281500.000			-22.167			-3.694
281601.000			-22.168			-3.695
281700.000			-22.168			-3.695
281800.000			-22.167			-3.694
281902.000			-22.166			-3.694
282001.000			-22.166			-3.694
282101.000			-22.166			-3.694
282201.000			-22.166			-3.694
282300.000			-22.167			-3.694
282400.000			-22.167			-3.694
282501.000			-22.167			-3.694
282600.000			-22.165			-3.694
282701.000			-22.165			-3.694
282801.000			-22.164			-3.694
282901.000			-22.165			-3.694
283002.000			-22.165			-3.694
283100.000			-22.164			-3.694
283200.000			-22.164			-3.694
283301.000			-22.164			-3.694
283400.000			-22.164			-3.694
283500.000			-22.164			-3.694
283601.000			-22.164			-3.694
283700.000			-22.165			-3.694
283801.000			-22.165			-3.694
283902.000			-22.163			-3.694
284000.000			-22.164			-3.694
284100.000			-22.163			-3.694
284201.000			-22.162			-3.694
284300.000			-22.163			-3.694
284400.000			-22.162			-3.694
284501.000			-22.162			-3.694
284600.000			-22.162			-3.694
284701.000			-22.162			-3.694
284802.000			-22.161			-3.693
284901.000			-22.161			-3.693
285000.000			-22.160			-3.693
285101.000			-22.161			-3.694
285200.000			-22.161			-3.694
285300.000			-22.161			-3.693
285401.000			-22.160			-3.693
285500.000			-22.160			-3.693
285601.000			-22.160			-3.693
285702.000			-22.161			-3.693
285801.000			-22.161			-3.694
285901.000			-22.161			-3.693
286000.000			-22.159			-3.693
286100.000			-22.159			-3.693
286201.000			-22.159			-3.693
286300.000			-22.159			-3.693
286400.000			-22.158			-3.693
286501.000			-22.158			-3.693
286601.000			-22.158			-3.693
286701.000			-22.159			-3.693
286801.000			-22.158			-3.693
286900.000			-22.158			-3.693
287000.000			-22.157			-3.693
287101.000			-22.158			-3.693
287200.000			-22.158			-3.693
287300.000			-22.158			-3.693
287401.000			-22.158			-3.693
287501.000			-22.157			-3.693
287601.000			-22.156			-3.693
287702.000			-22.157			-3.693
287800.000			-22.157			-3.693
287900.000			-22.156			-3.693
288001.000			-22.156			-3.693
288100.000			-22.156			-3.693
288200.000			-22.156			-3.693
288301.000			-22.156			-3.693
288400.000			-22.155			-3.693
288501.000			-22.155			-3.693
288602.000			-22.154			-3.692
288701.000			-22.155			-3.692
288800.000			-22.154			-3.692
288901.000			-22.153			-3.692
289000.000			-22.154			-3.692
289101.000			-22.155			-3.692
289200.000			-22.154			-3.692
289300.000			-22.153			-3.692
289401.000			-22.153			-3.692
289501.000			-22.154			-3.692
289601.000			-22.154			-3.692
289701.000			-22.153			-3.692
289800.000			-22.153			-3.692
289900.000			-22.153			-3.692
290001.000			-22.153			-3.692
290100.000			-22.153			-3.692
290200.000			-22.152			-3.692
290301.000			-22.151			-3.692
290401.000			-22.152			-3.692
290501.000			-22.151			-3.692
290601.000			-22.152			-3.692
290700.000			-22.151			-3.692
290800.000			-22.151			-3.692
290901.000			-22.150			-3.692
291000.000			-22.152			-3.692
291100.000			-22.152			-3.692
291201.000			-22.152			-3.692
291301.000			-22.151			-3.692
291401.000			-22.151			-3.692
291501.000			-22.150			-3.692
291600.000			-22.150			-3.692
291700.000			-22.149			-3.692
291801.000			-22.149			-3.691
291900.000			-22.149			-3.692
292000.000			-22.149			-3.691
292101.000			-22.150			-3.692
292201.000			-22.149			-3.692
292302.000			-22.149			-3.692
292401.000			-22.150			-3.692
292500.000			-22.149			-3.692
292601.000			-22.149			-3.692
292700.000			-22.148			-3.691
292800.000			-22.147			-3.691
292901.000			-22.146			-3.691
293000.000			-22.147			-3.691
293100.000			-22.147			-3.691
293202.000			-22.147			-3.691
293301.000			-22.147			-3.691
293400.000			-22.146			-3.691
293501.000			-22.146			-3.691
293600.000			-22.145			-3.691
293700.000			-22.146			-3.691
293801.000			-22.147			-3.691
293900.000			-22.147			-3.691
294000.000			-22.146			-3.691
294102.000			-22.145			-3.691
294201.000			-22.146			-3.691
294301.000			-22.144			-3.691
294401.000			-22.144			-3.691
294500.000			-22.144			-3.691
294600.000			-22.145			-3.691
294701.000			-22.144			-3.691
294800.000			-22.145			-3.691
294900.000			-22.145			-3.691
295002.000			-22.145			-3.691
295101.000			-22.144			-3.691
295201.000			-22.144			-3.691
295301.000			-22.144			-3.691
295400.000			-22.143			-3.691
295501.000			-22.143			-3.691
295600.000			-22.144			-3.691
295700.000			-22.144			-3.691
295801.000			-22.144			-3.691
295900.000			-22.144			-3.691
296001.000			-22.143			-3.690
296102.000			-22.142			-3.690
296200.000			-22.143			-3.690
296300.000			-22.142			-3.690
296401.000			-22.142			-3.690
296500.000			-22.142			-3.690
296600.000			-22.142			-3.690
296701.000			-22.142			-3.690
296800.000			-22.142			-3.690
296901.000			-22.142			-3.690
297002.000			-22.142			-3.690
297101.000			-22.141			-3.690
297200.000			-22.140			-3.690
297301.000			-22.141			-3.690
297400.000			-22.141			-3.690
297500.000			-22.141			-3.690
297601.000			-22.140			-3.690
297700.000			-22.140			-3.690
297800.000			-22.140			-3.690
297902.000			-22.139			-3.690
298001.000			-22.139			-3.690
298100.000			-22.140			-3.690
298201.000			-22.140			-3.690
298300.000			-22.140			-3.690
298400.000			-22.139			-3.690
298501.000			-22.137			-3.690
298600.000			-22.138			-3.690
298701.000			-22.139			-3.690
298801.000			-22.137			-3.689
298901.000			-22.137			-3.690
299002.000			-22.137			-3.690
299100.000			-22.137			-3.690
299200.000			-22.137			-3.690
299301.000			-22.136			-3.689
299400.000			-22.136			-3.689
299500.000			-22.137			-3.689
299601.000			-22.137			-3.689
299700.000			-22.137			-3.689
299801.000			-22.137			-3.689
299902.000			-22.136			-3.689
