# Acquired on 10/01/2024 11:14:51 
# SPIDER: Creep_3mm_07714532B-1
# CREEP MEASUREMENT

# time [ms]		force [N]		stiffness [N/mm]
0.000			-8.365			-2.788
101.000			-9.248			-3.083
201.000			-9.582			-3.194
300.000			-9.599			-3.200
401.000			-9.551			-3.184
500.000			-9.511			-3.170
600.000			-9.454			-3.151
701.000			-9.431			-3.144
801.000			-9.411			-3.137
901.000			-9.392			-3.131
1001.000			-9.376			-3.125
1100.000			-9.362			-3.121
1200.000			-9.348			-3.116
1301.000			-9.325			-3.108
1400.000			-9.313			-3.104
1500.000			-9.303			-3.101
1602.000			-9.294			-3.098
1701.000			-9.285			-3.095
1801.000			-9.277			-3.092
1900.000			-9.268			-3.089
2000.000			-9.261			-3.087
2101.000			-9.246			-3.082
2200.000			-9.239			-3.080
2300.000			-9.232			-3.077
2402.000			-9.226			-3.075
2501.000			-9.220			-3.073
2600.000			-9.214			-3.071
2701.000			-9.207			-3.069
2800.000			-9.199			-3.066
2900.000			-9.192			-3.064
3001.000			-9.187			-3.062
3101.000			-9.183			-3.061
3201.000			-9.178			-3.059
3301.000			-9.173			-3.058
3400.000			-9.169			-3.056
3500.000			-9.161			-3.054
3601.000			-9.157			-3.052
3700.000			-9.152			-3.051
3800.000			-9.148			-3.049
3902.000			-9.144			-3.048
4001.000			-9.141			-3.047
4100.000			-9.137			-3.046
4201.000			-9.134			-3.045
4300.000			-9.126			-3.042
4400.000			-9.123			-3.041
4501.000			-9.120			-3.040
4601.000			-9.117			-3.039
4702.000			-9.113			-3.038
4800.000			-9.110			-3.037
4900.000			-9.108			-3.036
5001.000			-9.102			-3.034
5100.000			-9.099			-3.033
5200.000			-9.096			-3.032
5301.000			-9.094			-3.031
5401.000			-9.091			-3.030
5501.000			-9.087			-3.029
5601.000			-9.084			-3.028
5700.000			-9.079			-3.026
5800.000			-9.077			-3.026
5901.000			-9.075			-3.025
6000.000			-9.072			-3.024
6101.000			-9.070			-3.023
6202.000			-9.068			-3.023
6300.000			-9.066			-3.022
6400.000			-9.063			-3.021
6501.000			-9.058			-3.019
6600.000			-9.056			-3.019
6700.000			-9.054			-3.018
6801.000			-9.052			-3.017
6901.000			-9.049			-3.016
7001.000			-9.046			-3.015
7101.000			-9.045			-3.015
7200.000			-9.041			-3.014
7300.000			-9.040			-3.013
7401.000			-9.038			-3.013
7500.000			-9.036			-3.012
7600.000			-9.035			-3.012
7702.000			-9.033			-3.011
7801.000			-9.029			-3.010
7900.000			-9.027			-3.009
8000.000			-9.025			-3.008
8100.000			-9.024			-3.008
8201.000			-9.022			-3.007
8300.000			-9.020			-3.007
8401.000			-9.018			-3.006
8502.000			-9.016			-3.005
8600.000			-9.015			-3.005
8700.000			-9.012			-3.004
8801.000			-9.010			-3.003
8900.000			-9.008			-3.003
9000.000			-9.006			-3.002
9101.000			-9.006			-3.002
9201.000			-9.004			-3.001
9301.000			-9.003			-3.001
9401.000			-8.998			-2.999
9500.000			-8.997			-2.999
9600.000			-8.995			-2.998
9701.000			-8.995			-2.998
9800.000			-8.994			-2.998
9900.000			-8.991			-2.997
10002.000			-8.991			-2.997
10101.000			-8.987			-2.996
10200.000			-8.986			-2.995
10301.000			-8.986			-2.995
10400.000			-8.984			-2.995
10500.000			-8.983			-2.994
10601.000			-8.981			-2.994
10700.000			-8.980			-2.993
10801.000			-8.977			-2.992
10902.000			-8.975			-2.992
11000.000			-8.975			-2.992
11100.000			-8.973			-2.991
11200.000			-8.970			-2.990
11300.000			-8.970			-2.990
11401.000			-8.969			-2.990
11500.000			-8.968			-2.989
11601.000			-8.966			-2.989
11702.000			-8.966			-2.989
11800.000			-8.964			-2.988
11900.000			-8.962			-2.987
12001.000			-8.960			-2.987
12100.000			-8.959			-2.986
12200.000			-8.958			-2.986
12301.000			-8.955			-2.985
12401.000			-8.955			-2.985
12501.000			-8.953			-2.984
12601.000			-8.952			-2.984
12700.000			-8.951			-2.984
12800.000			-8.950			-2.983
12901.000			-8.949			-2.983
13000.000			-8.946			-2.982
13100.000			-8.946			-2.982
13202.000			-8.945			-2.982
13301.000			-8.943			-2.981
13400.000			-8.942			-2.981
13501.000			-8.942			-2.981
13600.000			-8.941			-2.980
13700.000			-8.939			-2.980
13801.000			-8.937			-2.979
13900.000			-8.936			-2.979
14001.000			-8.935			-2.978
14102.000			-8.935			-2.978
14200.000			-8.934			-2.978
14300.000			-8.931			-2.977
14400.000			-8.930			-2.977
14500.000			-8.930			-2.977
14601.000			-8.929			-2.976
14700.000			-8.927			-2.976
14801.000			-8.928			-2.976
14902.000			-8.926			-2.975
15001.000			-8.924			-2.975
15100.000			-8.924			-2.975
15201.000			-8.921			-2.974
15300.000			-8.921			-2.974
15400.000			-8.920			-2.973
15501.000			-8.919			-2.973
15601.000			-8.917			-2.972
15701.000			-8.915			-2.972
15802.000			-8.915			-2.972
15900.000			-8.914			-2.971
16000.000			-8.913			-2.971
16101.000			-8.912			-2.971
16200.000			-8.912			-2.971
16300.000			-8.910			-2.970
16402.000			-8.909			-2.970
16501.000			-8.909			-2.970
16601.000			-8.908			-2.969
16701.000			-8.905			-2.968
16800.000			-8.905			-2.968
16900.000			-8.904			-2.968
17001.000			-8.904			-2.968
17100.000			-8.903			-2.968
17200.000			-8.901			-2.967
17302.000			-8.900			-2.967
17401.000			-8.899			-2.966
17500.000			-8.898			-2.966
17600.000			-8.898			-2.966
17700.000			-8.897			-2.966
17801.000			-8.896			-2.965
17900.000			-8.896			-2.965
18000.000			-8.894			-2.965
18102.000			-8.892			-2.964
18201.000			-8.892			-2.964
18300.000			-8.893			-2.964
18401.000			-8.891			-2.964
18500.000			-8.890			-2.963
18600.000			-8.889			-2.963
18701.000			-8.888			-2.963
18800.000			-8.887			-2.962
18901.000			-8.886			-2.962
19002.000			-8.885			-2.962
19100.000			-8.884			-2.961
19200.000			-8.885			-2.962
19301.000			-8.884			-2.961
19400.000			-8.882			-2.961
19500.000			-8.881			-2.960
19601.000			-8.881			-2.960
19701.000			-8.880			-2.960
19801.000			-8.879			-2.960
19902.000			-8.878			-2.959
20000.000			-8.876			-2.959
20100.000			-8.876			-2.959
20201.000			-8.876			-2.959
20300.000			-8.874			-2.958
20400.000			-8.873			-2.958
20502.000			-8.873			-2.958
20601.000			-8.872			-2.957
20700.000			-8.871			-2.957
20800.000			-8.870			-2.957
20900.000			-8.871			-2.957
21001.000			-8.871			-2.957
21100.000			-8.868			-2.956
21200.000			-8.868			-2.956
21302.000			-8.867			-2.956
21401.000			-8.866			-2.955
21500.000			-8.865			-2.955
21601.000			-8.864			-2.955
21700.000			-8.864			-2.955
21800.000			-8.864			-2.955
21901.000			-8.863			-2.954
22000.000			-8.861			-2.954
22101.000			-8.861			-2.954
22202.000			-8.861			-2.954
22300.000			-8.860			-2.953
22400.000			-8.858			-2.953
22501.000			-8.857			-2.952
22600.000			-8.856			-2.952
22700.000			-8.857			-2.952
22801.000			-8.856			-2.952
22901.000			-8.856			-2.952
23001.000			-8.855			-2.952
23101.000			-8.854			-2.951
23200.000			-8.853			-2.951
23300.000			-8.852			-2.951
23401.000			-8.851			-2.950
23500.000			-8.851			-2.950
23600.000			-8.850			-2.950
23702.000			-8.850			-2.950
23801.000			-8.849			-2.950
23900.000			-8.850			-2.950
24000.000			-8.849			-2.950
24100.000			-8.848			-2.949
24201.000			-8.846			-2.949
24300.000			-8.846			-2.949
24400.000			-8.844			-2.948
24501.000			-8.844			-2.948
24601.000			-8.844			-2.948
24701.000			-8.843			-2.948
24801.000			-8.843			-2.948
24900.000			-8.841			-2.947
25000.000			-8.841			-2.947
25101.000			-8.840			-2.947
25200.000			-8.839			-2.946
25301.000			-8.838			-2.946
25402.000			-8.838			-2.946
25501.000			-8.837			-2.946
25600.000			-8.836			-2.945
25701.000			-8.836			-2.945
25800.000			-8.835			-2.945
25900.000			-8.834			-2.945
26001.000			-8.835			-2.945
26101.000			-8.834			-2.945
26201.000			-8.832			-2.944
26302.000			-8.832			-2.944
26400.000			-8.832			-2.944
26500.000			-8.831			-2.944
26601.000			-8.829			-2.943
26700.000			-8.829			-2.943
26800.000			-8.830			-2.943
26902.000			-8.827			-2.942
27001.000			-8.827			-2.942
27102.000			-8.827			-2.942
27200.000			-8.827			-2.942
27300.000			-8.827			-2.942
27401.000			-8.826			-2.942
27500.000			-8.826			-2.942
27600.000			-8.825			-2.942
27701.000			-8.824			-2.941
27801.000			-8.824			-2.941
27901.000			-8.824			-2.941
28001.000			-8.823			-2.941
28100.000			-8.823			-2.941
28200.000			-8.822			-2.941
28301.000			-8.821			-2.940
28400.000			-8.820			-2.940
28500.000			-8.820			-2.940
28602.000			-8.820			-2.940
28701.000			-8.819			-2.940
28800.000			-8.817			-2.939
28901.000			-8.817			-2.939
29000.000			-8.818			-2.939
29100.000			-8.817			-2.939
29201.000			-8.815			-2.938
29300.000			-8.815			-2.938
29401.000			-8.814			-2.938
29502.000			-8.813			-2.938
29600.000			-8.812			-2.937
29700.000			-8.813			-2.938
29801.000			-8.811			-2.937
29900.000			-8.810			-2.937
30000.000			-8.810			-2.937
30101.000			-8.809			-2.936
30201.000			-8.809			-2.936
30302.000			-8.809			-2.936
30400.000			-8.808			-2.936
30500.000			-8.807			-2.936
30601.000			-8.806			-2.935
30700.000			-8.805			-2.935
30800.000			-8.805			-2.935
30901.000			-8.804			-2.935
31001.000			-8.803			-2.934
31101.000			-8.803			-2.934
31201.000			-8.802			-2.934
31300.000			-8.802			-2.934
31400.000			-8.802			-2.934
31501.000			-8.801			-2.934
31600.000			-8.800			-2.933
31701.000			-8.800			-2.933
31802.000			-8.799			-2.933
31901.000			-8.798			-2.933
32000.000			-8.800			-2.933
32101.000			-8.800			-2.933
32200.000			-8.798			-2.933
32300.000			-8.798			-2.933
32401.000			-8.798			-2.933
32500.000			-8.796			-2.932
32601.000			-8.797			-2.932
32702.000			-8.796			-2.932
32800.000			-8.795			-2.932
32900.000			-8.795			-2.932
33001.000			-8.794			-2.931
33100.000			-8.794			-2.931
33200.000			-8.793			-2.931
33301.000			-8.793			-2.931
33401.000			-8.793			-2.931
33502.000			-8.793			-2.931
33600.000			-8.792			-2.931
33700.000			-8.792			-2.931
33801.000			-8.791			-2.930
33900.000			-8.791			-2.930
34000.000			-8.790			-2.930
34101.000			-8.790			-2.930
34201.000			-8.788			-2.929
34301.000			-8.787			-2.929
34401.000			-8.787			-2.929
34500.000			-8.787			-2.929
34600.000			-8.787			-2.929
34701.000			-8.787			-2.929
34800.000			-8.786			-2.929
34900.000			-8.785			-2.928
35002.000			-8.785			-2.928
35101.000			-8.785			-2.928
35200.000			-8.784			-2.928
35301.000			-8.783			-2.928
35400.000			-8.783			-2.928
35500.000			-8.783			-2.928
35601.000			-8.782			-2.927
35700.000			-8.781			-2.927
35801.000			-8.781			-2.927
35902.000			-8.781			-2.927
36000.000			-8.780			-2.927
36100.000			-8.779			-2.926
36201.000			-8.780			-2.927
36300.000			-8.780			-2.927
36400.000			-8.778			-2.926
36501.000			-8.777			-2.926
36601.000			-8.777			-2.926
36702.000			-8.777			-2.926
36801.000			-8.777			-2.926
36900.000			-8.775			-2.925
37001.000			-8.774			-2.925
37100.000			-8.776			-2.925
37200.000			-8.775			-2.925
37301.000			-8.774			-2.925
37400.000			-8.774			-2.925
37501.000			-8.774			-2.925
37602.000			-8.773			-2.924
37700.000			-8.772			-2.924
37800.000			-8.772			-2.924
37901.000			-8.773			-2.924
38000.000			-8.772			-2.924
38100.000			-8.771			-2.924
38201.000			-8.771			-2.924
38301.000			-8.771			-2.924
38401.000			-8.770			-2.923
38501.000			-8.770			-2.923
38600.000			-8.769			-2.923
38700.000			-8.769			-2.923
38801.000			-8.769			-2.923
38900.000			-8.768			-2.923
39000.000			-8.767			-2.922
39102.000			-8.767			-2.922
39201.000			-8.767			-2.922
39300.000			-8.766			-2.922
39401.000			-8.766			-2.922
39500.000			-8.765			-2.922
39600.000			-8.764			-2.921
39701.000			-8.764			-2.921
39800.000			-8.764			-2.921
39902.000			-8.763			-2.921
40001.000			-8.762			-2.921
40100.000			-8.762			-2.921
40201.000			-8.761			-2.920
40300.000			-8.760			-2.920
40400.000			-8.760			-2.920
40501.000			-8.760			-2.920
40600.000			-8.760			-2.920
40701.000			-8.759			-2.920
40802.000			-8.758			-2.919
40900.000			-8.759			-2.920
41000.000			-8.758			-2.919
41101.000			-8.757			-2.919
41200.000			-8.757			-2.919
41300.000			-8.756			-2.919
41401.000			-8.756			-2.919
41501.000			-8.755			-2.918
41601.000			-8.755			-2.918
41701.000			-8.755			-2.918
41800.000			-8.754			-2.918
41900.000			-8.754			-2.918
42001.000			-8.754			-2.918
42100.000			-8.753			-2.918
42200.000			-8.754			-2.918
42302.000			-8.752			-2.917
42401.000			-8.752			-2.917
42500.000			-8.751			-2.917
42601.000			-8.751			-2.917
42700.000			-8.751			-2.917
42800.000			-8.751			-2.917
42901.000			-8.750			-2.917
43000.000			-8.749			-2.916
43102.000			-8.749			-2.916
43201.000			-8.749			-2.916
43300.000			-8.747			-2.916
43401.000			-8.747			-2.916
43500.000			-8.747			-2.916
43600.000			-8.746			-2.915
43701.000			-8.746			-2.915
43800.000			-8.746			-2.915
43901.000			-8.746			-2.915
44002.000			-8.746			-2.915
44101.000			-8.746			-2.915
44200.000			-8.744			-2.915
44301.000			-8.743			-2.914
44400.000			-8.744			-2.915
44500.000			-8.745			-2.915
44601.000			-8.744			-2.915
44701.000			-8.744			-2.915
44801.000			-8.742			-2.914
44901.000			-8.742			-2.914
45000.000			-8.742			-2.914
45100.000			-8.741			-2.914
45201.000			-8.740			-2.913
45300.000			-8.740			-2.913
45400.000			-8.740			-2.913
45502.000			-8.741			-2.914
45601.000			-8.740			-2.913
45701.000			-8.739			-2.913
45801.000			-8.739			-2.913
45900.000			-8.738			-2.913
46000.000			-8.737			-2.912
46101.000			-8.737			-2.912
46200.000			-8.737			-2.912
46300.000			-8.737			-2.912
46402.000			-8.737			-2.912
46501.000			-8.736			-2.912
46601.000			-8.736			-2.912
46700.000			-8.736			-2.912
46800.000			-8.735			-2.912
46901.000			-8.734			-2.911
47000.000			-8.735			-2.912
47100.000			-8.735			-2.912
47202.000			-8.734			-2.911
47301.000			-8.733			-2.911
47400.000			-8.733			-2.911
47501.000			-8.733			-2.911
47600.000			-8.732			-2.911
47700.000			-8.731			-2.910
47801.000			-8.731			-2.910
47900.000			-8.731			-2.910
48001.000			-8.731			-2.910
48102.000			-8.731			-2.910
48200.000			-8.730			-2.910
48300.000			-8.730			-2.910
48401.000			-8.730			-2.910
48500.000			-8.729			-2.910
48600.000			-8.729			-2.910
48701.000			-8.729			-2.910
48801.000			-8.730			-2.910
48901.000			-8.728			-2.909
49001.000			-8.729			-2.910
49100.000			-8.728			-2.909
49200.000			-8.727			-2.909
49301.000			-8.726			-2.909
49400.000			-8.728			-2.909
49500.000			-8.727			-2.909
49602.000			-8.726			-2.909
49701.000			-8.726			-2.909
49801.000			-8.726			-2.909
49900.000			-8.726			-2.909
50000.000			-8.725			-2.908
50101.000			-8.724			-2.908
50200.000			-8.724			-2.908
50300.000			-8.724			-2.908
50402.000			-8.723			-2.908
50501.000			-8.724			-2.908
50600.000			-8.723			-2.908
50701.000			-8.723			-2.908
50800.000			-8.722			-2.907
50900.000			-8.721			-2.907
51001.000			-8.721			-2.907
51100.000			-8.721			-2.907
51201.000			-8.721			-2.907
51302.000			-8.721			-2.907
51400.000			-8.721			-2.907
51500.000			-8.721			-2.907
51601.000			-8.719			-2.906
51700.000			-8.718			-2.906
51800.000			-8.719			-2.906
51901.000			-8.718			-2.906
52001.000			-8.718			-2.906
52101.000			-8.718			-2.906
52201.000			-8.718			-2.906
52300.000			-8.718			-2.906
52400.000			-8.718			-2.906
52501.000			-8.716			-2.905
52600.000			-8.715			-2.905
52700.000			-8.716			-2.905
52802.000			-8.715			-2.905
52901.000			-8.715			-2.905
53001.000			-8.715			-2.905
53100.000			-8.714			-2.905
53200.000			-8.715			-2.905
53301.000			-8.715			-2.905
53400.000			-8.714			-2.905
53500.000			-8.714			-2.905
53602.000			-8.714			-2.905
53701.000			-8.714			-2.905
53800.000			-8.713			-2.904
53901.000			-8.713			-2.904
54000.000			-8.713			-2.904
54100.000			-8.712			-2.904
54201.000			-8.712			-2.904
54300.000			-8.711			-2.904
54401.000			-8.711			-2.904
54502.000			-8.711			-2.904
54600.000			-8.711			-2.904
54700.000			-8.710			-2.903
54801.000			-8.709			-2.903
54900.000			-8.709			-2.903
55000.000			-8.710			-2.903
55101.000			-8.711			-2.904
55201.000			-8.710			-2.903
55301.000			-8.709			-2.903
55401.000			-8.708			-2.903
55500.000			-8.708			-2.903
55600.000			-8.708			-2.903
55701.000			-8.709			-2.903
55800.000			-8.708			-2.903
55900.000			-8.708			-2.903
56002.000			-8.708			-2.903
56101.000			-8.706			-2.902
56201.000			-8.707			-2.902
56300.000			-8.707			-2.902
56400.000			-8.707			-2.902
56501.000			-8.706			-2.902
56600.000			-8.706			-2.902
56700.000			-8.706			-2.902
56802.000			-8.705			-2.902
56901.000			-8.705			-2.902
57000.000			-8.705			-2.902
57101.000			-8.704			-2.901
57200.000			-8.703			-2.901
57300.000			-8.703			-2.901
57401.000			-8.704			-2.901
57500.000			-8.704			-2.901
57601.000			-8.703			-2.901
57702.000			-8.703			-2.901
57800.000			-8.703			-2.901
57900.000			-8.704			-2.901
58001.000			-8.702			-2.901
58100.000			-8.702			-2.901
58200.000			-8.702			-2.901
58301.000			-8.702			-2.901
58401.000			-8.701			-2.900
58501.000			-8.701			-2.900
58601.000			-8.700			-2.900
58700.000			-8.699			-2.900
58800.000			-8.699			-2.900
58901.000			-8.700			-2.900
59000.000			-8.699			-2.900
59100.000			-8.698			-2.899
59202.000			-8.698			-2.899
59301.000			-8.698			-2.899
59401.000			-8.698			-2.899
59500.000			-8.698			-2.899
59600.000			-8.698			-2.899
59701.000			-8.698			-2.899
59800.000			-8.696			-2.899
59900.000			-8.696			-2.899
60002.000			-8.696			-2.899
60101.000			-8.696			-2.899
60200.000			-8.696			-2.899
60301.000			-8.696			-2.899
60400.000			-8.696			-2.899
60500.000			-8.695			-2.898
60601.000			-8.695			-2.898
60700.000			-8.695			-2.898
60801.000			-8.694			-2.898
60902.000			-8.694			-2.898
61001.000			-8.694			-2.898
61100.000			-8.694			-2.898
61201.000			-8.693			-2.898
61300.000			-8.692			-2.897
61400.000			-8.692			-2.897
61501.000			-8.692			-2.897
61601.000			-8.692			-2.897
61701.000			-8.693			-2.898
61802.000			-8.692			-2.897
61900.000			-8.692			-2.897
62000.000			-8.692			-2.897
62101.000			-8.691			-2.897
62200.000			-8.691			-2.897
62300.000			-8.691			-2.897
62400.000			-8.690			-2.897
62501.000			-8.690			-2.897
62602.000			-8.690			-2.897
62700.000			-8.689			-2.896
62800.000			-8.689			-2.896
62901.000			-8.688			-2.896
63000.000			-8.688			-2.896
63100.000			-8.689			-2.896
63201.000			-8.688			-2.896
63301.000			-8.689			-2.896
63401.000			-8.687			-2.896
63501.000			-8.687			-2.896
63600.000			-8.687			-2.896
63700.000			-8.688			-2.896
63801.000			-8.688			-2.896
63900.000			-8.687			-2.896
64000.000			-8.686			-2.895
64102.000			-8.686			-2.895
64201.000			-8.685			-2.895
64300.000			-8.685			-2.895
64401.000			-8.685			-2.895
64500.000			-8.684			-2.895
64600.000			-8.684			-2.895
64701.000			-8.685			-2.895
64800.000			-8.686			-2.895
64901.000			-8.684			-2.895
65002.000			-8.684			-2.895
65101.000			-8.684			-2.895
65200.000			-8.683			-2.894
65301.000			-8.683			-2.894
65400.000			-8.683			-2.894
65500.000			-8.683			-2.894
65600.000			-8.683			-2.894
65700.000			-8.682			-2.894
65802.000			-8.683			-2.894
65901.000			-8.682			-2.894
66000.000			-8.681			-2.894
66101.000			-8.680			-2.893
66200.000			-8.681			-2.894
66300.000			-8.680			-2.893
66401.000			-8.680			-2.893
66500.000			-8.680			-2.893
66601.000			-8.680			-2.893
66702.000			-8.680			-2.893
66800.000			-8.680			-2.893
66900.000			-8.679			-2.893
67001.000			-8.679			-2.893
67100.000			-8.679			-2.893
67200.000			-8.678			-2.893
67301.000			-8.678			-2.893
67401.000			-8.678			-2.893
67501.000			-8.678			-2.893
67602.000			-8.676			-2.892
67700.000			-8.676			-2.892
67800.000			-8.677			-2.892
67901.000			-8.676			-2.892
68000.000			-8.676			-2.892
68100.000			-8.676			-2.892
68201.000			-8.676			-2.892
68301.000			-8.676			-2.892
68401.000			-8.675			-2.892
68501.000			-8.676			-2.892
68600.000			-8.674			-2.891
68700.000			-8.674			-2.891
68800.000			-8.674			-2.891
68900.000			-8.673			-2.891
69001.000			-8.673			-2.891
69101.000			-8.673			-2.891
69201.000			-8.674			-2.891
69302.000			-8.673			-2.891
69400.000			-8.672			-2.891
69500.000			-8.672			-2.891
69601.000			-8.672			-2.891
69700.000			-8.672			-2.891
69800.000			-8.673			-2.891
69901.000			-8.672			-2.891
70001.000			-8.672			-2.891
70101.000			-8.671			-2.890
70201.000			-8.670			-2.890
70300.000			-8.669			-2.890
70400.000			-8.670			-2.890
70501.000			-8.670			-2.890
70600.000			-8.669			-2.890
70700.000			-8.669			-2.890
70802.000			-8.669			-2.890
70901.000			-8.669			-2.890
71000.000			-8.670			-2.890
71101.000			-8.669			-2.890
71200.000			-8.669			-2.890
71300.000			-8.668			-2.889
71401.000			-8.668			-2.889
71500.000			-8.668			-2.889
71601.000			-8.668			-2.889
71702.000			-8.668			-2.889
71800.000			-8.667			-2.889
71900.000			-8.667			-2.889
72000.000			-8.667			-2.889
72100.000			-8.667			-2.889
72201.000			-8.667			-2.889
72300.000			-8.666			-2.889
72400.000			-8.665			-2.888
72502.000			-8.665			-2.888
72601.000			-8.665			-2.888
72700.000			-8.665			-2.888
72801.000			-8.665			-2.888
72900.000			-8.665			-2.888
73000.000			-8.665			-2.888
73101.000			-8.665			-2.888
73200.000			-8.665			-2.888
73301.000			-8.663			-2.888
73402.000			-8.663			-2.888
73500.000			-8.662			-2.887
73600.000			-8.661			-2.887
73701.000			-8.663			-2.888
73800.000			-8.662			-2.887
73900.000			-8.661			-2.887
74001.000			-8.663			-2.888
74101.000			-8.662			-2.887
74201.000			-8.661			-2.887
74301.000			-8.661			-2.887
74400.000			-8.661			-2.887
74500.000			-8.661			-2.887
74601.000			-8.662			-2.887
74700.000			-8.661			-2.887
74800.000			-8.661			-2.887
74902.000			-8.660			-2.887
75001.000			-8.660			-2.887
75100.000			-8.659			-2.886
75200.000			-8.660			-2.887
75300.000			-8.659			-2.886
75401.000			-8.659			-2.886
75500.000			-8.658			-2.886
75600.000			-8.658			-2.886
75702.000			-8.658			-2.886
75801.000			-8.658			-2.886
75901.000			-8.658			-2.886
76001.000			-8.657			-2.886
76100.000			-8.657			-2.886
76200.000			-8.656			-2.885
76301.000			-8.657			-2.886
76400.000			-8.656			-2.885
76500.000			-8.657			-2.886
76602.000			-8.656			-2.885
76701.000			-8.655			-2.885
76800.000			-8.655			-2.885
76901.000			-8.656			-2.885
77000.000			-8.655			-2.885
77100.000			-8.655			-2.885
77201.000			-8.655			-2.885
77300.000			-8.656			-2.885
77401.000			-8.653			-2.884
77502.000			-8.652			-2.884
77600.000			-8.654			-2.885
77700.000			-8.654			-2.885
77801.000			-8.654			-2.885
77900.000			-8.653			-2.884
78000.000			-8.653			-2.884
78101.000			-8.652			-2.884
78201.000			-8.652			-2.884
78302.000			-8.652			-2.884
78401.000			-8.652			-2.884
78500.000			-8.653			-2.884
78601.000			-8.652			-2.884
78700.000			-8.651			-2.884
78800.000			-8.652			-2.884
78901.000			-8.651			-2.884
79000.000			-8.650			-2.883
79101.000			-8.651			-2.884
79202.000			-8.650			-2.883
79300.000			-8.650			-2.883
79400.000			-8.651			-2.884
79501.000			-8.649			-2.883
79600.000			-8.649			-2.883
79700.000			-8.649			-2.883
79801.000			-8.649			-2.883
79901.000			-8.649			-2.883
80001.000			-8.648			-2.883
80101.000			-8.649			-2.883
80200.000			-8.649			-2.883
80300.000			-8.648			-2.883
80401.000			-8.647			-2.882
80500.000			-8.648			-2.883
80600.000			-8.648			-2.883
80701.000			-8.648			-2.883
80801.000			-8.647			-2.882
80901.000			-8.646			-2.882
81001.000			-8.646			-2.882
81100.000			-8.647			-2.882
81200.000			-8.646			-2.882
81301.000			-8.646			-2.882
81400.000			-8.646			-2.882
81500.000			-8.647			-2.882
81602.000			-8.647			-2.882
81701.000			-8.646			-2.882
81801.000			-8.645			-2.882
81900.000			-8.646			-2.882
82000.000			-8.645			-2.882
82101.000			-8.644			-2.881
82200.000			-8.644			-2.881
82300.000			-8.645			-2.882
82402.000			-8.645			-2.882
82501.000			-8.644			-2.881
82600.000			-8.644			-2.881
82701.000			-8.644			-2.881
82800.000			-8.644			-2.881
82900.000			-8.644			-2.881
83001.000			-8.644			-2.881
83100.000			-8.644			-2.881
83201.000			-8.643			-2.881
83302.000			-8.643			-2.881
83400.000			-8.643			-2.881
83500.000			-8.643			-2.881
83601.000			-8.642			-2.881
83700.000			-8.643			-2.881
83800.000			-8.643			-2.881
83901.000			-8.641			-2.880
84001.000			-8.642			-2.881
84101.000			-8.641			-2.880
84201.000			-8.641			-2.880
84300.000			-8.641			-2.880
84400.000			-8.641			-2.880
84501.000			-8.641			-2.880
84600.000			-8.640			-2.880
84700.000			-8.640			-2.880
84802.000			-8.641			-2.880
84901.000			-8.640			-2.880
85001.000			-8.638			-2.879
85100.000			-8.639			-2.880
85200.000			-8.639			-2.880
85301.000			-8.639			-2.880
85400.000			-8.639			-2.880
85500.000			-8.638			-2.879
85601.000			-8.638			-2.879
85701.000			-8.638			-2.879
85801.000			-8.637			-2.879
85901.000			-8.637			-2.879
86000.000			-8.637			-2.879
86100.000			-8.638			-2.879
86201.000			-8.637			-2.879
86300.000			-8.638			-2.879
86400.000			-8.637			-2.879
86502.000			-8.636			-2.879
86601.000			-8.636			-2.879
86700.000			-8.636			-2.879
86801.000			-8.636			-2.879
86900.000			-8.636			-2.879
87000.000			-8.637			-2.879
87101.000			-8.636			-2.879
87200.000			-8.636			-2.879
87301.000			-8.635			-2.878
87402.000			-8.636			-2.879
87500.000			-8.636			-2.879
87600.000			-8.635			-2.878
87701.000			-8.635			-2.878
87800.000			-8.634			-2.878
87900.000			-8.633			-2.878
88000.000			-8.632			-2.877
88100.000			-8.634			-2.878
88202.000			-8.634			-2.878
88301.000			-8.634			-2.878
88400.000			-8.633			-2.878
88501.000			-8.633			-2.878
88600.000			-8.634			-2.878
88700.000			-8.632			-2.877
88801.000			-8.632			-2.877
88900.000			-8.632			-2.877
89001.000			-8.632			-2.877
89102.000			-8.632			-2.877
89200.000			-8.631			-2.877
89300.000			-8.631			-2.877
89401.000			-8.631			-2.877
89500.000			-8.632			-2.877
89600.000			-8.631			-2.877
89701.000			-8.631			-2.877
89801.000			-8.630			-2.877
89901.000			-8.631			-2.877
90002.000			-8.630			-2.877
90100.000			-8.630			-2.877
90200.000			-8.629			-2.876
90301.000			-8.630			-2.877
90400.000			-8.630			-2.877
90500.000			-8.629			-2.876
90601.000			-8.630			-2.877
90701.000			-8.630			-2.877
90801.000			-8.628			-2.876
90901.000			-8.627			-2.876
91000.000			-8.628			-2.876
91100.000			-8.628			-2.876
91200.000			-8.627			-2.876
91300.000			-8.628			-2.876
91401.000			-8.627			-2.876
91501.000			-8.627			-2.876
91601.000			-8.628			-2.876
91701.000			-8.627			-2.876
91800.000			-8.627			-2.876
91900.000			-8.625			-2.875
92001.000			-8.626			-2.875
92100.000			-8.626			-2.875
92200.000			-8.625			-2.875
92302.000			-8.626			-2.875
92401.000			-8.625			-2.875
92500.000			-8.625			-2.875
92601.000			-8.625			-2.875
92700.000			-8.624			-2.875
92800.000			-8.624			-2.875
92901.000			-8.625			-2.875
93000.000			-8.625			-2.875
93101.000			-8.625			-2.875
93202.000			-8.624			-2.875
93300.000			-8.624			-2.875
93400.000			-8.624			-2.875
93501.000			-8.624			-2.875
93600.000			-8.623			-2.874
93700.000			-8.623			-2.874
93801.000			-8.623			-2.874
93901.000			-8.623			-2.874
94001.000			-8.622			-2.874
94101.000			-8.622			-2.874
94200.000			-8.622			-2.874
94300.000			-8.622			-2.874
94400.000			-8.622			-2.874
94500.000			-8.622			-2.874
94601.000			-8.622			-2.874
94701.000			-8.621			-2.874
94801.000			-8.620			-2.873
94902.000			-8.621			-2.874
95000.000			-8.621			-2.874
95100.000			-8.620			-2.873
95201.000			-8.620			-2.873
95300.000			-8.620			-2.873
95400.000			-8.620			-2.873
95501.000			-8.620			-2.873
95601.000			-8.619			-2.873
95701.000			-8.620			-2.873
95801.000			-8.619			-2.873
95900.000			-8.619			-2.873
96000.000			-8.619			-2.873
96101.000			-8.620			-2.873
96200.000			-8.619			-2.873
96300.000			-8.619			-2.873
96402.000			-8.618			-2.873
96501.000			-8.618			-2.873
96600.000			-8.618			-2.873
96701.000			-8.617			-2.872
96800.000			-8.617			-2.872
96900.000			-8.618			-2.873
97001.000			-8.617			-2.872
97100.000			-8.618			-2.873
97201.000			-8.618			-2.873
97302.000			-8.617			-2.872
97401.000			-8.616			-2.872
97500.000			-8.616			-2.872
97600.000			-8.616			-2.872
97700.000			-8.616			-2.872
97801.000			-8.617			-2.872
97900.000			-8.615			-2.872
98000.000			-8.615			-2.872
98102.000			-8.616			-2.872
98201.000			-8.615			-2.872
98300.000			-8.615			-2.872
98401.000			-8.615			-2.872
98500.000			-8.616			-2.872
98600.000			-8.615			-2.872
98701.000			-8.614			-2.871
98800.000			-8.613			-2.871
98901.000			-8.614			-2.871
99002.000			-8.614			-2.871
99101.000			-8.615			-2.872
99200.000			-8.614			-2.871
99301.000			-8.614			-2.871
99400.000			-8.613			-2.871
99500.000			-8.613			-2.871
99601.000			-8.613			-2.871
99700.000			-8.613			-2.871
99801.000			-8.613			-2.871
99902.000			-8.613			-2.871
100000.000			-8.612			-2.871
100100.000			-8.612			-2.871
100201.000			-8.612			-2.871
100300.000			-8.612			-2.871
100400.000			-8.611			-2.870
100501.000			-8.612			-2.871
100601.000			-8.612			-2.871
100702.000			-8.611			-2.870
100800.000			-8.610			-2.870
100900.000			-8.609			-2.870
101001.000			-8.610			-2.870
101100.000			-8.609			-2.870
101200.000			-8.610			-2.870
101301.000			-8.610			-2.870
101401.000			-8.609			-2.870
101501.000			-8.609			-2.870
101601.000			-8.609			-2.870
101700.000			-8.609			-2.870
101800.000			-8.608			-2.869
101901.000			-8.608			-2.869
102000.000			-8.608			-2.869
102100.000			-8.609			-2.870
102202.000			-8.607			-2.869
102301.000			-8.607			-2.869
102400.000			-8.608			-2.869
102501.000			-8.607			-2.869
102600.000			-8.607			-2.869
102700.000			-8.608			-2.869
102801.000			-8.608			-2.869
102900.000			-8.607			-2.869
103000.000			-8.607			-2.869
103102.000			-8.607			-2.869
103201.000			-8.607			-2.869
103300.000			-8.606			-2.869
103401.000			-8.606			-2.869
103500.000			-8.606			-2.869
103600.000			-8.605			-2.868
103701.000			-8.606			-2.869
103800.000			-8.606			-2.869
103902.000			-8.606			-2.869
104001.000			-8.606			-2.869
104100.000			-8.606			-2.869
104201.000			-8.605			-2.868
104300.000			-8.605			-2.868
104400.000			-8.603			-2.868
104501.000			-8.605			-2.868
104600.000			-8.605			-2.868
104701.000			-8.604			-2.868
104802.000			-8.604			-2.868
104900.000			-8.604			-2.868
105000.000			-8.603			-2.868
105101.000			-8.603			-2.868
105200.000			-8.603			-2.868
105300.000			-8.603			-2.868
105401.000			-8.602			-2.867
105501.000			-8.602			-2.867
105601.000			-8.603			-2.868
105701.000			-8.603			-2.868
105800.000			-8.601			-2.867
105900.000			-8.602			-2.867
106001.000			-8.602			-2.867
106100.000			-8.602			-2.867
106200.000			-8.602			-2.867
106302.000			-8.602			-2.867
106401.000			-8.601			-2.867
106500.000			-8.601			-2.867
106601.000			-8.600			-2.867
106700.000			-8.600			-2.867
106800.000			-8.600			-2.867
106901.000			-8.600			-2.867
107000.000			-8.600			-2.867
107100.000			-8.599			-2.866
107202.000			-8.599			-2.866
107301.000			-8.599			-2.866
107401.000			-8.598			-2.866
107500.000			-8.599			-2.866
107600.000			-8.598			-2.866
107701.000			-8.597			-2.866
107800.000			-8.598			-2.866
107900.000			-8.598			-2.866
108001.000			-8.598			-2.866
108101.000			-8.598			-2.866
108201.000			-8.598			-2.866
108301.000			-8.599			-2.866
108400.000			-8.598			-2.866
108500.000			-8.598			-2.866
108601.000			-8.598			-2.866
108700.000			-8.597			-2.866
108800.000			-8.597			-2.866
108901.000			-8.597			-2.866
109001.000			-8.597			-2.866
109101.000			-8.598			-2.866
109201.000			-8.597			-2.866
109300.000			-8.596			-2.865
109400.000			-8.596			-2.865
109501.000			-8.596			-2.865
109600.000			-8.594			-2.865
109700.000			-8.595			-2.865
109802.000			-8.595			-2.865
109901.000			-8.595			-2.865
110001.000			-8.596			-2.865
110101.000			-8.595			-2.865
110200.000			-8.594			-2.865
110300.000			-8.594			-2.865
110400.000			-8.593			-2.864
110500.000			-8.594			-2.865
110601.000			-8.594			-2.865
110701.000			-8.594			-2.865
110801.000			-8.594			-2.865
110901.000			-8.594			-2.865
111000.000			-8.594			-2.865
111100.000			-8.594			-2.865
111201.000			-8.594			-2.865
111300.000			-8.593			-2.864
111400.000			-8.593			-2.864
111502.000			-8.594			-2.865
111601.000			-8.593			-2.864
111700.000			-8.594			-2.865
111801.000			-8.593			-2.864
111900.000			-8.593			-2.864
112000.000			-8.593			-2.864
112101.000			-8.592			-2.864
112200.000			-8.591			-2.864
112301.000			-8.591			-2.864
112402.000			-8.593			-2.864
112501.000			-8.591			-2.864
112600.000			-8.591			-2.864
112701.000			-8.591			-2.864
112800.000			-8.592			-2.864
112900.000			-8.592			-2.864
113001.000			-8.591			-2.864
113100.000			-8.590			-2.863
113201.000			-8.591			-2.864
113302.000			-8.591			-2.864
113400.000			-8.590			-2.863
113500.000			-8.589			-2.863
113600.000			-8.589			-2.863
113700.000			-8.589			-2.863
113801.000			-8.589			-2.863
113900.000			-8.588			-2.863
114001.000			-8.589			-2.863
114102.000			-8.590			-2.863
114201.000			-8.589			-2.863
114300.000			-8.588			-2.863
114401.000			-8.589			-2.863
114500.000			-8.588			-2.863
114600.000			-8.588			-2.863
114701.000			-8.588			-2.863
114800.000			-8.588			-2.863
114901.000			-8.589			-2.863
115002.000			-8.588			-2.863
115101.000			-8.587			-2.862
115200.000			-8.587			-2.862
115301.000			-8.588			-2.863
115400.000			-8.588			-2.863
115500.000			-8.587			-2.862
115601.000			-8.587			-2.862
115700.000			-8.588			-2.863
115801.000			-8.587			-2.862
115902.000			-8.588			-2.863
116000.000			-8.586			-2.862
116100.000			-8.586			-2.862
116201.000			-8.587			-2.862
116300.000			-8.587			-2.862
116400.000			-8.586			-2.862
116501.000			-8.586			-2.862
116601.000			-8.585			-2.862
116702.000			-8.585			-2.862
116801.000			-8.585			-2.862
116900.000			-8.584			-2.861
117001.000			-8.584			-2.861
117100.000			-8.584			-2.861
117200.000			-8.585			-2.862
117301.000			-8.585			-2.862
117400.000			-8.584			-2.861
117501.000			-8.583			-2.861
117602.000			-8.583			-2.861
117700.000			-8.584			-2.861
117800.000			-8.584			-2.861
117901.000			-8.583			-2.861
118000.000			-8.582			-2.861
118100.000			-8.582			-2.861
118201.000			-8.584			-2.861
118300.000			-8.583			-2.861
118401.000			-8.583			-2.861
118502.000			-8.584			-2.861
118600.000			-8.583			-2.861
118700.000			-8.583			-2.861
118801.000			-8.583			-2.861
118900.000			-8.583			-2.861
119000.000			-8.583			-2.861
119101.000			-8.582			-2.861
119201.000			-8.581			-2.860
119301.000			-8.581			-2.860
119402.000			-8.581			-2.860
119500.000			-8.582			-2.861
119600.000			-8.582			-2.861
119701.000			-8.582			-2.861
119800.000			-8.582			-2.861
119900.000			-8.580			-2.860
120000.000			-8.581			-2.860
120101.000			-8.582			-2.861
120202.000			-8.581			-2.860
120301.000			-8.581			-2.860
120400.000			-8.580			-2.860
120501.000			-8.580			-2.860
120600.000			-8.580			-2.860
120700.000			-8.580			-2.860
120801.000			-8.580			-2.860
120900.000			-8.580			-2.860
121001.000			-8.579			-2.860
121102.000			-8.579			-2.860
121200.000			-8.580			-2.860
121300.000			-8.579			-2.860
121401.000			-8.578			-2.859
121500.000			-8.578			-2.859
121600.000			-8.578			-2.859
121701.000			-8.577			-2.859
121801.000			-8.577			-2.859
121901.000			-8.578			-2.859
122002.000			-8.577			-2.859
122100.000			-8.577			-2.859
122200.000			-8.578			-2.859
122301.000			-8.578			-2.859
122400.000			-8.578			-2.859
122500.000			-8.578			-2.859
122601.000			-8.577			-2.859
122701.000			-8.577			-2.859
122801.000			-8.576			-2.859
122901.000			-8.575			-2.858
123000.000			-8.576			-2.859
123100.000			-8.577			-2.859
123200.000			-8.576			-2.859
123300.000			-8.576			-2.859
123401.000			-8.575			-2.858
123501.000			-8.575			-2.858
123601.000			-8.576			-2.859
123702.000			-8.575			-2.858
123800.000			-8.575			-2.858
123900.000			-8.575			-2.858
124001.000			-8.574			-2.858
124100.000			-8.575			-2.858
124200.000			-8.576			-2.859
124301.000			-8.575			-2.858
124401.000			-8.575			-2.858
124501.000			-8.574			-2.858
124601.000			-8.574			-2.858
124700.000			-8.574			-2.858
124800.000			-8.574			-2.858
124901.000			-8.574			-2.858
125000.000			-8.574			-2.858
125100.000			-8.574			-2.858
125201.000			-8.574			-2.858
125301.000			-8.575			-2.858
125401.000			-8.574			-2.858
125501.000			-8.573			-2.858
125600.000			-8.572			-2.857
125700.000			-8.572			-2.857
125801.000			-8.572			-2.857
125900.000			-8.573			-2.858
126000.000			-8.572			-2.857
126102.000			-8.572			-2.857
126201.000			-8.571			-2.857
126302.000			-8.570			-2.857
126400.000			-8.571			-2.857
126500.000			-8.572			-2.857
126601.000			-8.572			-2.857
126700.000			-8.571			-2.857
126800.000			-8.571			-2.857
126901.000			-8.571			-2.857
127001.000			-8.570			-2.857
127101.000			-8.570			-2.857
127201.000			-8.569			-2.856
127300.000			-8.569			-2.856
127400.000			-8.569			-2.856
127501.000			-8.568			-2.856
127600.000			-8.569			-2.856
127700.000			-8.568			-2.856
127801.000			-8.569			-2.856
127901.000			-8.570			-2.857
128001.000			-8.569			-2.856
128101.000			-8.569			-2.856
128200.000			-8.568			-2.856
128300.000			-8.568			-2.856
128401.000			-8.568			-2.856
128500.000			-8.567			-2.856
128600.000			-8.567			-2.856
128701.000			-8.567			-2.856
128801.000			-8.568			-2.856
128901.000			-8.567			-2.856
129001.000			-8.567			-2.856
129100.000			-8.567			-2.856
129200.000			-8.566			-2.855
129301.000			-8.566			-2.855
129400.000			-8.565			-2.855
129500.000			-8.566			-2.855
129602.000			-8.566			-2.855
129701.000			-8.566			-2.855
129802.000			-8.566			-2.855
129900.000			-8.566			-2.855
130000.000			-8.566			-2.855
130101.000			-8.565			-2.855
130200.000			-8.564			-2.855
130300.000			-8.565			-2.855
130401.000			-8.564			-2.855
130501.000			-8.563			-2.854
130601.000			-8.565			-2.855
130701.000			-8.564			-2.855
130800.000			-8.564			-2.855
130900.000			-8.564			-2.855
131001.000			-8.563			-2.854
131100.000			-8.563			-2.854
131200.000			-8.564			-2.855
131302.000			-8.564			-2.855
131401.000			-8.563			-2.854
131501.000			-8.563			-2.854
131601.000			-8.563			-2.854
131700.000			-8.563			-2.854
131800.000			-8.563			-2.854
131901.000			-8.563			-2.854
132000.000			-8.562			-2.854
132100.000			-8.561			-2.854
132202.000			-8.561			-2.854
132301.000			-8.561			-2.854
132401.000			-8.562			-2.854
132501.000			-8.562			-2.854
132600.000			-8.562			-2.854
132700.000			-8.562			-2.854
132800.000			-8.562			-2.854
132900.000			-8.562			-2.854
133001.000			-8.561			-2.854
133101.000			-8.561			-2.854
133201.000			-8.561			-2.854
133302.000			-8.560			-2.853
133400.000			-8.560			-2.853
133500.000			-8.560			-2.853
133601.000			-8.560			-2.853
133700.000			-8.560			-2.853
133800.000			-8.560			-2.853
133901.000			-8.560			-2.853
134000.000			-8.560			-2.853
134101.000			-8.560			-2.853
134202.000			-8.561			-2.854
134300.000			-8.559			-2.853
134400.000			-8.560			-2.853
134501.000			-8.560			-2.853
134600.000			-8.559			-2.853
134700.000			-8.560			-2.853
134801.000			-8.559			-2.853
134900.000			-8.559			-2.853
135001.000			-8.560			-2.853
135102.000			-8.558			-2.853
135200.000			-8.558			-2.853
135300.000			-8.559			-2.853
135401.000			-8.559			-2.853
135500.000			-8.559			-2.853
135600.000			-8.558			-2.853
135701.000			-8.558			-2.853
135800.000			-8.557			-2.852
135902.000			-8.557			-2.852
136001.000			-8.557			-2.852
136101.000			-8.558			-2.853
136201.000			-8.557			-2.852
136300.000			-8.557			-2.852
136400.000			-8.558			-2.853
136501.000			-8.558			-2.853
136600.000			-8.558			-2.853
136700.000			-8.558			-2.853
136801.000			-8.558			-2.853
136901.000			-8.558			-2.853
137001.000			-8.558			-2.853
137101.000			-8.557			-2.852
137200.000			-8.557			-2.852
137300.000			-8.557			-2.852
137401.000			-8.557			-2.852
137500.000			-8.556			-2.852
137600.000			-8.555			-2.852
137701.000			-8.557			-2.852
137801.000			-8.557			-2.852
137901.000			-8.556			-2.852
138002.000			-8.556			-2.852
138100.000			-8.555			-2.852
138200.000			-8.555			-2.852
138301.000			-8.556			-2.852
138400.000			-8.556			-2.852
138500.000			-8.557			-2.852
138601.000			-8.556			-2.852
138700.000			-8.555			-2.852
138800.000			-8.556			-2.852
138902.000			-8.554			-2.851
139001.000			-8.554			-2.851
139100.000			-8.555			-2.852
139200.000			-8.555			-2.852
139300.000			-8.555			-2.852
139401.000			-8.555			-2.852
139500.000			-8.554			-2.851
139600.000			-8.554			-2.851
139701.000			-8.554			-2.851
139801.000			-8.554			-2.851
139901.000			-8.553			-2.851
140002.000			-8.554			-2.851
140100.000			-8.553			-2.851
140200.000			-8.554			-2.851
140301.000			-8.554			-2.851
140400.000			-8.554			-2.851
140500.000			-8.554			-2.851
140601.000			-8.553			-2.851
140701.000			-8.553			-2.851
140801.000			-8.553			-2.851
140902.000			-8.553			-2.851
141000.000			-8.554			-2.851
141100.000			-8.554			-2.851
141201.000			-8.553			-2.851
141300.000			-8.552			-2.851
141400.000			-8.552			-2.851
141501.000			-8.553			-2.851
141601.000			-8.552			-2.851
141701.000			-8.552			-2.851
141802.000			-8.552			-2.851
141900.000			-8.552			-2.851
142000.000			-8.551			-2.850
142101.000			-8.551			-2.850
142200.000			-8.552			-2.851
142300.000			-8.552			-2.851
142400.000			-8.551			-2.850
142501.000			-8.550			-2.850
142602.000			-8.550			-2.850
142701.000			-8.551			-2.850
142800.000			-8.551			-2.850
142901.000			-8.551			-2.850
143000.000			-8.551			-2.850
143100.000			-8.550			-2.850
143201.000			-8.551			-2.850
143300.000			-8.551			-2.850
143401.000			-8.550			-2.850
143502.000			-8.551			-2.850
143601.000			-8.551			-2.850
143700.000			-8.550			-2.850
143801.000			-8.551			-2.850
143900.000			-8.550			-2.850
144000.000			-8.550			-2.850
144101.000			-8.550			-2.850
144200.000			-8.550			-2.850
144300.000			-8.548			-2.849
144402.000			-8.549			-2.850
144501.000			-8.550			-2.850
144600.000			-8.549			-2.850
144701.000			-8.549			-2.850
144800.000			-8.550			-2.850
144900.000			-8.550			-2.850
145001.000			-8.550			-2.850
145100.000			-8.550			-2.850
145200.000			-8.549			-2.850
145302.000			-8.549			-2.850
145401.000			-8.549			-2.850
145502.000			-8.549			-2.850
145600.000			-8.547			-2.849
145700.000			-8.547			-2.849
145801.000			-8.547			-2.849
145900.000			-8.548			-2.849
146000.000			-8.548			-2.849
146101.000			-8.548			-2.849
146200.000			-8.549			-2.850
146301.000			-8.548			-2.849
146402.000			-8.548			-2.849
146500.000			-8.547			-2.849
146600.000			-8.547			-2.849
146701.000			-8.546			-2.849
146800.000			-8.547			-2.849
146900.000			-8.546			-2.849
147001.000			-8.545			-2.848
147100.000			-8.546			-2.849
147201.000			-8.547			-2.849
147302.000			-8.546			-2.849
147401.000			-8.547			-2.849
147500.000			-8.546			-2.849
147601.000			-8.546			-2.849
147700.000			-8.546			-2.849
147800.000			-8.546			-2.849
147901.000			-8.545			-2.848
148000.000			-8.545			-2.848
148100.000			-8.543			-2.848
148202.000			-8.543			-2.848
148301.000			-8.546			-2.849
148400.000			-8.546			-2.849
148501.000			-8.545			-2.848
148600.000			-8.545			-2.848
148700.000			-8.544			-2.848
148800.000			-8.545			-2.848
148900.000			-8.546			-2.849
149001.000			-8.546			-2.849
149101.000			-8.545			-2.848
149201.000			-8.543			-2.848
149302.000			-8.543			-2.848
149400.000			-8.543			-2.848
149500.000			-8.543			-2.848
149601.000			-8.544			-2.848
149700.000			-8.543			-2.848
149800.000			-8.544			-2.848
149901.000			-8.544			-2.848
150000.000			-8.544			-2.848
150101.000			-8.543			-2.848
150202.000			-8.543			-2.848
150300.000			-8.542			-2.847
150400.000			-8.542			-2.847
150501.000			-8.542			-2.847
150600.000			-8.541			-2.847
150700.000			-8.541			-2.847
150801.000			-8.542			-2.847
150900.000			-8.543			-2.848
151001.000			-8.542			-2.847
151102.000			-8.541			-2.847
151200.000			-8.541			-2.847
151300.000			-8.541			-2.847
151401.000			-8.542			-2.847
151500.000			-8.543			-2.848
151600.000			-8.542			-2.847
151701.000			-8.542			-2.847
151801.000			-8.540			-2.847
151902.000			-8.541			-2.847
152001.000			-8.542			-2.847
152100.000			-8.541			-2.847
152201.000			-8.541			-2.847
152300.000			-8.542			-2.847
152400.000			-8.542			-2.847
152501.000			-8.540			-2.847
152600.000			-8.540			-2.847
152700.000			-8.539			-2.846
152802.000			-8.539			-2.846
152901.000			-8.539			-2.846
153000.000			-8.540			-2.847
153101.000			-8.540			-2.847
153200.000			-8.540			-2.847
153300.000			-8.538			-2.846
153401.000			-8.539			-2.846
153500.000			-8.539			-2.846
153600.000			-8.539			-2.846
153702.000			-8.540			-2.847
153801.000			-8.539			-2.846
153901.000			-8.539			-2.846
154001.000			-8.538			-2.846
154100.000			-8.538			-2.846
154200.000			-8.539			-2.846
154301.000			-8.539			-2.846
154400.000			-8.537			-2.846
154500.000			-8.537			-2.846
154601.000			-8.538			-2.846
154701.000			-8.537			-2.846
154801.000			-8.538			-2.846
154901.000			-8.537			-2.846
155000.000			-8.537			-2.846
155100.000			-8.537			-2.846
155200.000			-8.537			-2.846
155300.000			-8.538			-2.846
155401.000			-8.538			-2.846
155500.000			-8.537			-2.846
155601.000			-8.537			-2.846
155702.000			-8.536			-2.845
155800.000			-8.535			-2.845
155900.000			-8.536			-2.845
156001.000			-8.536			-2.845
156100.000			-8.537			-2.846
156200.000			-8.535			-2.845
156301.000			-8.536			-2.845
156400.000			-8.536			-2.845
156501.000			-8.536			-2.845
156602.000			-8.535			-2.845
156701.000			-8.535			-2.845
156800.000			-8.534			-2.845
156901.000			-8.534			-2.845
157000.000			-8.535			-2.845
157100.000			-8.534			-2.845
157201.000			-8.534			-2.845
157300.000			-8.534			-2.845
157400.000			-8.535			-2.845
157502.000			-8.534			-2.845
157601.000			-8.533			-2.844
157700.000			-8.534			-2.845
157801.000			-8.534			-2.845
157900.000			-8.534			-2.845
158000.000			-8.534			-2.845
158101.000			-8.533			-2.844
158200.000			-8.533			-2.844
158300.000			-8.533			-2.844
158402.000			-8.533			-2.844
158501.000			-8.534			-2.845
158602.000			-8.533			-2.844
158700.000			-8.533			-2.844
158800.000			-8.533			-2.844
158901.000			-8.532			-2.844
159000.000			-8.532			-2.844
159100.000			-8.533			-2.844
159201.000			-8.531			-2.844
159301.000			-8.530			-2.843
159401.000			-8.531			-2.844
159502.000			-8.532			-2.844
159600.000			-8.533			-2.844
159700.000			-8.531			-2.844
159801.000			-8.531			-2.844
159900.000			-8.532			-2.844
160000.000			-8.531			-2.844
160101.000			-8.531			-2.844
160200.000			-8.531			-2.844
160301.000			-8.530			-2.843
160402.000			-8.530			-2.843
160500.000			-8.531			-2.844
160600.000			-8.529			-2.843
160701.000			-8.529			-2.843
160800.000			-8.530			-2.843
160900.000			-8.529			-2.843
161001.000			-8.529			-2.843
161100.000			-8.530			-2.843
161201.000			-8.530			-2.843
161302.000			-8.530			-2.843
161400.000			-8.529			-2.843
161500.000			-8.530			-2.843
161600.000			-8.530			-2.843
161700.000			-8.529			-2.843
161801.000			-8.529			-2.843
161900.000			-8.528			-2.843
162000.000			-8.527			-2.842
162102.000			-8.527			-2.842
162201.000			-8.529			-2.843
162301.000			-8.528			-2.843
162401.000			-8.528			-2.843
162500.000			-8.528			-2.843
162600.000			-8.528			-2.843
162701.000			-8.527			-2.842
162800.000			-8.527			-2.842
162900.000			-8.528			-2.843
163002.000			-8.528			-2.843
163101.000			-8.527			-2.842
163201.000			-8.527			-2.842
163301.000			-8.527			-2.842
163400.000			-8.526			-2.842
163500.000			-8.526			-2.842
163601.000			-8.525			-2.842
163700.000			-8.526			-2.842
163800.000			-8.526			-2.842
163901.000			-8.526			-2.842
164001.000			-8.525			-2.842
164101.000			-8.525			-2.842
164201.000			-8.525			-2.842
164300.000			-8.526			-2.842
164400.000			-8.526			-2.842
164501.000			-8.524			-2.841
164600.000			-8.525			-2.842
164700.000			-8.526			-2.842
164800.000			-8.526			-2.842
164901.000			-8.525			-2.842
165002.000			-8.524			-2.841
165101.000			-8.525			-2.842
165200.000			-8.525			-2.842
165301.000			-8.524			-2.841
165400.000			-8.524			-2.841
165500.000			-8.524			-2.841
165601.000			-8.523			-2.841
165700.000			-8.523			-2.841
165800.000			-8.523			-2.841
165902.000			-8.523			-2.841
166001.000			-8.522			-2.841
166100.000			-8.522			-2.841
166201.000			-8.523			-2.841
166300.000			-8.523			-2.841
166400.000			-8.523			-2.841
166501.000			-8.522			-2.841
166600.000			-8.522			-2.841
166700.000			-8.522			-2.841
166802.000			-8.522			-2.841
166901.000			-8.522			-2.841
167000.000			-8.522			-2.841
167101.000			-8.522			-2.841
167200.000			-8.521			-2.840
167300.000			-8.521			-2.840
167401.000			-8.522			-2.841
167500.000			-8.522			-2.841
167600.000			-8.522			-2.841
167702.000			-8.521			-2.840
167801.000			-8.522			-2.841
167900.000			-8.523			-2.841
168000.000			-8.522			-2.841
168100.000			-8.521			-2.840
168201.000			-8.522			-2.841
168300.000			-8.522			-2.841
168400.000			-8.522			-2.841
168501.000			-8.521			-2.840
168601.000			-8.521			-2.840
168701.000			-8.522			-2.841
168802.000			-8.521			-2.840
168900.000			-8.522			-2.841
169000.000			-8.521			-2.840
169101.000			-8.521			-2.840
169200.000			-8.521			-2.840
169300.000			-8.521			-2.840
169401.000			-8.521			-2.840
169501.000			-8.521			-2.840
169601.000			-8.521			-2.840
169702.000			-8.521			-2.840
169800.000			-8.521			-2.840
169900.000			-8.519			-2.840
170001.000			-8.522			-2.841
170100.000			-8.522			-2.841
170200.000			-8.521			-2.840
170301.000			-8.520			-2.840
170400.000			-8.519			-2.840
170501.000			-8.519			-2.840
170602.000			-8.520			-2.840
170700.000			-8.520			-2.840
170800.000			-8.520			-2.840
170901.000			-8.520			-2.840
171000.000			-8.519			-2.840
171100.000			-8.519			-2.840
171200.000			-8.519			-2.840
171300.000			-8.519			-2.840
171402.000			-8.519			-2.840
171501.000			-8.519			-2.840
171601.000			-8.519			-2.840
171701.000			-8.519			-2.840
171800.000			-8.520			-2.840
171900.000			-8.519			-2.840
172001.000			-8.518			-2.839
172100.000			-8.518			-2.839
172200.000			-8.519			-2.840
172301.000			-8.519			-2.840
172401.000			-8.519			-2.840
172501.000			-8.519			-2.840
172601.000			-8.519			-2.840
172700.000			-8.519			-2.840
172800.000			-8.519			-2.840
172901.000			-8.518			-2.839
173000.000			-8.519			-2.840
173100.000			-8.519			-2.840
173201.000			-8.518			-2.839
173301.000			-8.518			-2.839
173401.000			-8.518			-2.839
173501.000			-8.517			-2.839
173600.000			-8.517			-2.839
173700.000			-8.517			-2.839
173801.000			-8.516			-2.839
173900.000			-8.516			-2.839
174000.000			-8.517			-2.839
174101.000			-8.517			-2.839
174201.000			-8.517			-2.839
174302.000			-8.516			-2.839
174401.000			-8.515			-2.838
174500.000			-8.515			-2.838
174601.000			-8.515			-2.838
174700.000			-8.515			-2.838
174800.000			-8.516			-2.839
174901.000			-8.516			-2.839
175000.000			-8.516			-2.839
175100.000			-8.516			-2.839
175202.000			-8.516			-2.839
175301.000			-8.515			-2.838
175400.000			-8.514			-2.838
175501.000			-8.514			-2.838
175600.000			-8.515			-2.838
175700.000			-8.514			-2.838
175801.000			-8.515			-2.838
175900.000			-8.514			-2.838
176000.000			-8.514			-2.838
176102.000			-8.513			-2.838
176201.000			-8.514			-2.838
176301.000			-8.513			-2.838
176401.000			-8.514			-2.838
176500.000			-8.514			-2.838
176600.000			-8.513			-2.838
176701.000			-8.513			-2.838
176800.000			-8.513			-2.838
176900.000			-8.514			-2.838
177001.000			-8.514			-2.838
177101.000			-8.514			-2.838
177201.000			-8.513			-2.838
177301.000			-8.512			-2.837
177400.000			-8.513			-2.838
177500.000			-8.513			-2.838
177600.000			-8.513			-2.838
177700.000			-8.513			-2.838
177801.000			-8.513			-2.838
177900.000			-8.512			-2.837
178001.000			-8.512			-2.837
178102.000			-8.511			-2.837
178200.000			-8.512			-2.837
178300.000			-8.512			-2.837
178401.000			-8.512			-2.837
178500.000			-8.512			-2.837
178600.000			-8.512			-2.837
178701.000			-8.511			-2.837
178800.000			-8.511			-2.837
178901.000			-8.509			-2.836
179002.000			-8.510			-2.837
179101.000			-8.511			-2.837
179200.000			-8.511			-2.837
179301.000			-8.511			-2.837
179400.000			-8.510			-2.837
179500.000			-8.511			-2.837
179601.000			-8.511			-2.837
179700.000			-8.510			-2.837
179800.000			-8.510			-2.837
179902.000			-8.510			-2.837
180001.000			-8.510			-2.837
180100.000			-8.509			-2.836
180201.000			-8.509			-2.836
180300.000			-8.509			-2.836
180400.000			-8.509			-2.836
180501.000			-8.510			-2.837
180600.000			-8.509			-2.836
180700.000			-8.508			-2.836
180802.000			-8.509			-2.836
180901.000			-8.509			-2.836
181001.000			-8.509			-2.836
181100.000			-8.509			-2.836
181200.000			-8.509			-2.836
181301.000			-8.509			-2.836
181400.000			-8.509			-2.836
181500.000			-8.509			-2.836
181601.000			-8.509			-2.836
181701.000			-8.508			-2.836
181801.000			-8.508			-2.836
181902.000			-8.508			-2.836
182000.000			-8.507			-2.836
182100.000			-8.508			-2.836
182201.000			-8.509			-2.836
182300.000			-8.508			-2.836
182400.000			-8.508			-2.836
182501.000			-8.508			-2.836
182601.000			-8.508			-2.836
182701.000			-8.508			-2.836
182802.000			-8.508			-2.836
182900.000			-8.507			-2.836
183000.000			-8.508			-2.836
183101.000			-8.507			-2.836
183200.000			-8.506			-2.835
183300.000			-8.507			-2.836
183401.000			-8.508			-2.836
183500.000			-8.508			-2.836
183601.000			-8.508			-2.836
183702.000			-8.507			-2.836
183800.000			-8.508			-2.836
183900.000			-8.507			-2.836
184000.000			-8.508			-2.836
184100.000			-8.508			-2.836
184201.000			-8.507			-2.836
184300.000			-8.507			-2.836
184400.000			-8.507			-2.836
184502.000			-8.507			-2.836
184601.000			-8.506			-2.835
184701.000			-8.507			-2.836
184801.000			-8.507			-2.836
184900.000			-8.508			-2.836
185000.000			-8.507			-2.836
185101.000			-8.506			-2.835
185200.000			-8.507			-2.836
185300.000			-8.507			-2.836
185401.000			-8.506			-2.835
185501.000			-8.505			-2.835
185601.000			-8.506			-2.835
185701.000			-8.506			-2.835
185800.000			-8.505			-2.835
185900.000			-8.506			-2.835
186001.000			-8.505			-2.835
186100.000			-8.506			-2.835
186200.000			-8.505			-2.835
186301.000			-8.505			-2.835
186401.000			-8.506			-2.835
186501.000			-8.506			-2.835
186601.000			-8.505			-2.835
186700.000			-8.505			-2.835
186800.000			-8.505			-2.835
186901.000			-8.505			-2.835
187000.000			-8.505			-2.835
187100.000			-8.506			-2.835
187200.000			-8.505			-2.835
187301.000			-8.504			-2.835
187402.000			-8.504			-2.835
187501.000			-8.506			-2.835
187600.000			-8.504			-2.835
187701.000			-8.504			-2.835
187800.000			-8.504			-2.835
187900.000			-8.505			-2.835
188001.000			-8.505			-2.835
188100.000			-8.505			-2.835
188200.000			-8.505			-2.835
188302.000			-8.504			-2.835
188401.000			-8.504			-2.835
188500.000			-8.504			-2.835
188601.000			-8.503			-2.834
188700.000			-8.504			-2.835
188800.000			-8.504			-2.835
188901.000			-8.504			-2.835
189000.000			-8.503			-2.834
189100.000			-8.503			-2.834
189202.000			-8.503			-2.834
189301.000			-8.502			-2.834
189401.000			-8.502			-2.834
189501.000			-8.502			-2.834
189600.000			-8.502			-2.834
189700.000			-8.502			-2.834
189801.000			-8.503			-2.834
189900.000			-8.503			-2.834
190000.000			-8.503			-2.834
190101.000			-8.502			-2.834
190201.000			-8.502			-2.834
190302.000			-8.502			-2.834
190400.000			-8.501			-2.834
190500.000			-8.502			-2.834
190601.000			-8.501			-2.834
190700.000			-8.500			-2.833
190800.000			-8.500			-2.833
190901.000			-8.501			-2.834
191000.000			-8.501			-2.834
191101.000			-8.501			-2.834
191202.000			-8.500			-2.833
191300.000			-8.500			-2.833
191400.000			-8.501			-2.834
191501.000			-8.500			-2.833
191600.000			-8.499			-2.833
191700.000			-8.500			-2.833
191801.000			-8.501			-2.834
191900.000			-8.501			-2.834
192001.000			-8.499			-2.833
192102.000			-8.499			-2.833
192201.000			-8.499			-2.833
192300.000			-8.499			-2.833
192401.000			-8.499			-2.833
192500.000			-8.499			-2.833
192600.000			-8.499			-2.833
192701.000			-8.498			-2.833
192800.000			-8.499			-2.833
192900.000			-8.499			-2.833
193002.000			-8.499			-2.833
193101.000			-8.499			-2.833
193201.000			-8.499			-2.833
193301.000			-8.498			-2.833
193400.000			-8.498			-2.833
193500.000			-8.497			-2.832
193600.000			-8.497			-2.832
193700.000			-8.497			-2.832
193801.000			-8.498			-2.833
193900.000			-8.498			-2.833
194001.000			-8.498			-2.833
194102.000			-8.497			-2.832
194200.000			-8.498			-2.833
194300.000			-8.499			-2.833
194401.000			-8.497			-2.832
194500.000			-8.497			-2.832
194600.000			-8.497			-2.832
194701.000			-8.497			-2.832
194800.000			-8.496			-2.832
194900.000			-8.496			-2.832
195002.000			-8.496			-2.832
195101.000			-8.496			-2.832
195200.000			-8.496			-2.832
195301.000			-8.496			-2.832
195400.000			-8.496			-2.832
195500.000			-8.495			-2.832
195601.000			-8.497			-2.832
195700.000			-8.496			-2.832
195800.000			-8.496			-2.832
195902.000			-8.496			-2.832
196001.000			-8.495			-2.832
196101.000			-8.496			-2.832
196201.000			-8.496			-2.832
196300.000			-8.495			-2.832
196400.000			-8.495			-2.832
196501.000			-8.495			-2.832
196600.000			-8.494			-2.831
196700.000			-8.495			-2.832
196800.000			-8.495			-2.832
196901.000			-8.495			-2.832
197002.000			-8.494			-2.831
197101.000			-8.494			-2.831
197201.000			-8.494			-2.831
197301.000			-8.494			-2.831
197400.000			-8.493			-2.831
197500.000			-8.493			-2.831
197601.000			-8.494			-2.831
197700.000			-8.494			-2.831
197800.000			-8.494			-2.831
197901.000			-8.493			-2.831
198001.000			-8.493			-2.831
198101.000			-8.494			-2.831
198201.000			-8.494			-2.831
198300.000			-8.493			-2.831
198400.000			-8.493			-2.831
198501.000			-8.493			-2.831
198600.000			-8.493			-2.831
198700.000			-8.493			-2.831
198801.000			-8.493			-2.831
198901.000			-8.493			-2.831
199001.000			-8.494			-2.831
199102.000			-8.494			-2.831
199200.000			-8.492			-2.831
199300.000			-8.492			-2.831
199401.000			-8.493			-2.831
199500.000			-8.493			-2.831
199600.000			-8.493			-2.831
199701.000			-8.492			-2.831
199800.000			-8.493			-2.831
199900.000			-8.493			-2.831
200002.000			-8.493			-2.831
200101.000			-8.492			-2.831
200201.000			-8.493			-2.831
200300.000			-8.494			-2.831
200400.000			-8.493			-2.831
200501.000			-8.492			-2.831
200600.000			-8.492			-2.831
200700.000			-8.492			-2.831
200801.000			-8.492			-2.831
200901.000			-8.491			-2.830
201001.000			-8.491			-2.830
201101.000			-8.491			-2.830
201200.000			-8.492			-2.831
201300.000			-8.492			-2.831
201401.000			-8.493			-2.831
201500.000			-8.493			-2.831
201600.000			-8.493			-2.831
201701.000			-8.493			-2.831
201801.000			-8.492			-2.831
201901.000			-8.492			-2.831
202001.000			-8.490			-2.830
202100.000			-8.491			-2.830
202200.000			-8.490			-2.830
202301.000			-8.490			-2.830
202400.000			-8.491			-2.830
202500.000			-8.492			-2.831
202601.000			-8.491			-2.830
202701.000			-8.490			-2.830
202801.000			-8.491			-2.830
202901.000			-8.491			-2.830
203000.000			-8.490			-2.830
203100.000			-8.489			-2.830
203200.000			-8.490			-2.830
203300.000			-8.489			-2.830
203401.000			-8.490			-2.830
203500.000			-8.491			-2.830
203601.000			-8.490			-2.830
203702.000			-8.490			-2.830
203801.000			-8.489			-2.830
203900.000			-8.489			-2.830
204001.000			-8.490			-2.830
204100.000			-8.490			-2.830
204200.000			-8.490			-2.830
204301.000			-8.489			-2.830
204400.000			-8.490			-2.830
204501.000			-8.490			-2.830
204602.000			-8.489			-2.830
204701.000			-8.490			-2.830
204800.000			-8.489			-2.830
204901.000			-8.488			-2.829
205000.000			-8.489			-2.830
205100.000			-8.489			-2.830
205201.000			-8.489			-2.830
205300.000			-8.489			-2.830
205400.000			-8.489			-2.830
205502.000			-8.489			-2.830
205601.000			-8.489			-2.830
205700.000			-8.488			-2.829
205801.000			-8.489			-2.830
205900.000			-8.489			-2.830
206000.000			-8.489			-2.830
206101.000			-8.488			-2.829
206200.000			-8.488			-2.829
206300.000			-8.489			-2.830
206402.000			-8.488			-2.829
206501.000			-8.488			-2.829
206602.000			-8.488			-2.829
206700.000			-8.488			-2.829
206800.000			-8.488			-2.829
206901.000			-8.488			-2.829
207000.000			-8.489			-2.830
207100.000			-8.489			-2.830
207201.000			-8.488			-2.829
207300.000			-8.487			-2.829
207401.000			-8.488			-2.829
207502.000			-8.487			-2.829
207600.000			-8.486			-2.829
207700.000			-8.486			-2.829
207801.000			-8.487			-2.829
207900.000			-8.487			-2.829
208000.000			-8.487			-2.829
208101.000			-8.487			-2.829
208200.000			-8.486			-2.829
208301.000			-8.486			-2.829
208402.000			-8.486			-2.829
208501.000			-8.487			-2.829
208600.000			-8.487			-2.829
208701.000			-8.486			-2.829
208800.000			-8.486			-2.829
208900.000			-8.487			-2.829
209001.000			-8.486			-2.829
209100.000			-8.486			-2.829
209200.000			-8.486			-2.829
209302.000			-8.485			-2.828
209401.000			-8.486			-2.829
209500.000			-8.486			-2.829
209600.000			-8.485			-2.828
209700.000			-8.485			-2.828
209801.000			-8.485			-2.828
209900.000			-8.485			-2.828
210000.000			-8.484			-2.828
210101.000			-8.484			-2.828
210201.000			-8.485			-2.828
210301.000			-8.485			-2.828
210401.000			-8.486			-2.829
210500.000			-8.485			-2.828
210600.000			-8.485			-2.828
210701.000			-8.485			-2.828
210800.000			-8.485			-2.828
210900.000			-8.484			-2.828
211001.000			-8.484			-2.828
211101.000			-8.484			-2.828
211201.000			-8.484			-2.828
211301.000			-8.484			-2.828
211400.000			-8.485			-2.828
211500.000			-8.484			-2.828
211601.000			-8.483			-2.828
211700.000			-8.484			-2.828
211800.000			-8.484			-2.828
211901.000			-8.483			-2.828
212001.000			-8.482			-2.827
212101.000			-8.483			-2.828
212201.000			-8.483			-2.828
212300.000			-8.484			-2.828
212400.000			-8.484			-2.828
212501.000			-8.483			-2.828
212600.000			-8.483			-2.828
212700.000			-8.483			-2.828
212800.000			-8.482			-2.827
212901.000			-8.482			-2.827
213002.000			-8.483			-2.828
213101.000			-8.482			-2.827
213200.000			-8.482			-2.827
213301.000			-8.482			-2.827
213400.000			-8.482			-2.827
213500.000			-8.482			-2.827
213601.000			-8.482			-2.827
213700.000			-8.482			-2.827
213801.000			-8.481			-2.827
213902.000			-8.481			-2.827
214001.000			-8.481			-2.827
214100.000			-8.480			-2.827
214201.000			-8.480			-2.827
214300.000			-8.480			-2.827
214400.000			-8.480			-2.827
214501.000			-8.480			-2.827
214600.000			-8.480			-2.827
214700.000			-8.480			-2.827
214802.000			-8.480			-2.827
214901.000			-8.480			-2.827
215000.000			-8.481			-2.827
215101.000			-8.481			-2.827
215200.000			-8.481			-2.827
215300.000			-8.480			-2.827
215401.000			-8.479			-2.826
215500.000			-8.480			-2.827
215600.000			-8.480			-2.827
215702.000			-8.479			-2.826
215801.000			-8.478			-2.826
215900.000			-8.479			-2.826
216000.000			-8.480			-2.827
216100.000			-8.480			-2.827
216201.000			-8.479			-2.826
216300.000			-8.478			-2.826
216400.000			-8.478			-2.826
216501.000			-8.478			-2.826
216601.000			-8.478			-2.826
216701.000			-8.478			-2.826
216802.000			-8.479			-2.826
216900.000			-8.478			-2.826
217000.000			-8.478			-2.826
217101.000			-8.478			-2.826
217200.000			-8.478			-2.826
217300.000			-8.478			-2.826
217401.000			-8.478			-2.826
217500.000			-8.478			-2.826
217601.000			-8.477			-2.826
217702.000			-8.477			-2.826
217800.000			-8.476			-2.825
217900.000			-8.477			-2.826
218001.000			-8.477			-2.826
218100.000			-8.476			-2.825
218200.000			-8.478			-2.826
218301.000			-8.478			-2.826
218400.000			-8.479			-2.826
218501.000			-8.477			-2.826
218602.000			-8.477			-2.826
218701.000			-8.477			-2.826
218800.000			-8.477			-2.826
218901.000			-8.477			-2.826
219000.000			-8.479			-2.826
219100.000			-8.478			-2.826
219200.000			-8.477			-2.826
219300.000			-8.477			-2.826
219401.000			-8.477			-2.826
219501.000			-8.477			-2.826
219601.000			-8.476			-2.825
219701.000			-8.477			-2.826
219800.000			-8.478			-2.826
219900.000			-8.477			-2.826
220001.000			-8.477			-2.826
220100.000			-8.477			-2.826
220200.000			-8.477			-2.826
220301.000			-8.477			-2.826
220401.000			-8.478			-2.826
220501.000			-8.477			-2.826
220602.000			-8.478			-2.826
220700.000			-8.478			-2.826
220800.000			-8.477			-2.826
220901.000			-8.477			-2.826
221000.000			-8.479			-2.826
221100.000			-8.477			-2.826
221201.000			-8.477			-2.826
221301.000			-8.477			-2.826
221401.000			-8.477			-2.826
221502.000			-8.477			-2.826
221600.000			-8.477			-2.826
221700.000			-8.477			-2.826
221801.000			-8.476			-2.825
221900.000			-8.477			-2.826
222000.000			-8.477			-2.826
222101.000			-8.476			-2.825
222200.000			-8.476			-2.825
222302.000			-8.477			-2.826
222401.000			-8.477			-2.826
222500.000			-8.476			-2.825
222601.000			-8.476			-2.825
222700.000			-8.476			-2.825
222800.000			-8.476			-2.825
222901.000			-8.476			-2.825
223000.000			-8.477			-2.826
223100.000			-8.476			-2.825
223202.000			-8.476			-2.825
223301.000			-8.475			-2.825
223400.000			-8.475			-2.825
223501.000			-8.475			-2.825
223600.000			-8.475			-2.825
223700.000			-8.475			-2.825
223801.000			-8.475			-2.825
223900.000			-8.476			-2.825
224000.000			-8.476			-2.825
224102.000			-8.474			-2.825
224201.000			-8.474			-2.825
224301.000			-8.474			-2.825
224401.000			-8.474			-2.825
224500.000			-8.474			-2.825
224600.000			-8.475			-2.825
224701.000			-8.475			-2.825
224800.000			-8.474			-2.825
224900.000			-8.474			-2.825
225001.000			-8.474			-2.825
225101.000			-8.474			-2.825
225201.000			-8.474			-2.825
225301.000			-8.474			-2.825
225400.000			-8.474			-2.825
225500.000			-8.475			-2.825
225600.000			-8.474			-2.825
225700.000			-8.474			-2.825
225801.000			-8.475			-2.825
225900.000			-8.475			-2.825
226001.000			-8.475			-2.825
226102.000			-8.475			-2.825
226201.000			-8.474			-2.825
226300.000			-8.474			-2.825
226401.000			-8.474			-2.825
226500.000			-8.474			-2.825
226600.000			-8.474			-2.825
226701.000			-8.474			-2.825
226800.000			-8.475			-2.825
226900.000			-8.474			-2.825
227002.000			-8.473			-2.824
227101.000			-8.473			-2.824
227200.000			-8.474			-2.825
227301.000			-8.474			-2.825
227400.000			-8.474			-2.825
227500.000			-8.473			-2.824
227601.000			-8.474			-2.825
227700.000			-8.473			-2.824
227800.000			-8.473			-2.824
227902.000			-8.473			-2.824
228001.000			-8.472			-2.824
228101.000			-8.472			-2.824
228201.000			-8.472			-2.824
228300.000			-8.472			-2.824
228400.000			-8.474			-2.825
228501.000			-8.473			-2.824
228600.000			-8.473			-2.824
228700.000			-8.473			-2.824
228802.000			-8.473			-2.824
228901.000			-8.473			-2.824
229002.000			-8.473			-2.824
229100.000			-8.473			-2.824
229200.000			-8.472			-2.824
229301.000			-8.472			-2.824
229400.000			-8.472			-2.824
229500.000			-8.472			-2.824
229601.000			-8.473			-2.824
229700.000			-8.472			-2.824
229801.000			-8.472			-2.824
229902.000			-8.471			-2.824
230001.000			-8.471			-2.824
230100.000			-8.470			-2.823
230201.000			-8.471			-2.824
230300.000			-8.471			-2.824
230400.000			-8.471			-2.824
230501.000			-8.470			-2.823
230600.000			-8.469			-2.823
230701.000			-8.469			-2.823
230802.000			-8.469			-2.823
230900.000			-8.470			-2.823
231000.000			-8.471			-2.824
231101.000			-8.470			-2.823
231200.000			-8.469			-2.823
231300.000			-8.470			-2.823
231401.000			-8.469			-2.823
231500.000			-8.469			-2.823
231601.000			-8.470			-2.823
231702.000			-8.468			-2.823
231801.000			-8.469			-2.823
231900.000			-8.469			-2.823
232000.000			-8.469			-2.823
232100.000			-8.469			-2.823
232201.000			-8.469			-2.823
232300.000			-8.469			-2.823
232400.000			-8.469			-2.823
232501.000			-8.469			-2.823
232601.000			-8.469			-2.823
232701.000			-8.469			-2.823
232801.000			-8.469			-2.823
232900.000			-8.469			-2.823
233000.000			-8.468			-2.823
233101.000			-8.468			-2.823
233200.000			-8.468			-2.823
233300.000			-8.469			-2.823
233401.000			-8.470			-2.823
233501.000			-8.469			-2.823
233601.000			-8.469			-2.823
233701.000			-8.468			-2.823
233800.000			-8.468			-2.823
233900.000			-8.469			-2.823
234001.000			-8.469			-2.823
234100.000			-8.469			-2.823
234200.000			-8.468			-2.823
234301.000			-8.469			-2.823
234401.000			-8.468			-2.823
234501.000			-8.468			-2.823
234602.000			-8.467			-2.822
234700.000			-8.468			-2.823
234800.000			-8.469			-2.823
234901.000			-8.468			-2.823
235000.000			-8.468			-2.823
235100.000			-8.468			-2.823
235200.000			-8.468			-2.823
235300.000			-8.467			-2.822
235402.000			-8.468			-2.823
235501.000			-8.468			-2.823
235600.000			-8.468			-2.823
235701.000			-8.467			-2.822
235800.000			-8.468			-2.823
235900.000			-8.467			-2.822
236001.000			-8.467			-2.822
236100.000			-8.467			-2.822
236200.000			-8.467			-2.822
236302.000			-8.466			-2.822
236401.000			-8.466			-2.822
236501.000			-8.467			-2.822
236601.000			-8.467			-2.822
236700.000			-8.466			-2.822
236800.000			-8.467			-2.822
236901.000			-8.467			-2.822
237000.000			-8.466			-2.822
237100.000			-8.466			-2.822
237201.000			-8.466			-2.822
237301.000			-8.466			-2.822
237401.000			-8.466			-2.822
237501.000			-8.467			-2.822
237600.000			-8.466			-2.822
237700.000			-8.466			-2.822
237801.000			-8.467			-2.822
237900.000			-8.466			-2.822
238000.000			-8.467			-2.822
238101.000			-8.466			-2.822
238201.000			-8.466			-2.822
238302.000			-8.465			-2.822
238401.000			-8.465			-2.822
238500.000			-8.465			-2.822
238601.000			-8.466			-2.822
238700.000			-8.465			-2.822
238800.000			-8.465			-2.822
238901.000			-8.465			-2.822
239000.000			-8.465			-2.822
239100.000			-8.465			-2.822
239202.000			-8.465			-2.822
239301.000			-8.465			-2.822
239400.000			-8.464			-2.821
239501.000			-8.466			-2.822
239600.000			-8.465			-2.822
239700.000			-8.464			-2.821
239801.000			-8.464			-2.821
239900.000			-8.464			-2.821
240000.000			-8.464			-2.821
240101.000			-8.464			-2.821
240201.000			-8.463			-2.821
240301.000			-8.463			-2.821
240401.000			-8.463			-2.821
240500.000			-8.464			-2.821
240600.000			-8.463			-2.821
240701.000			-8.462			-2.821
240800.000			-8.463			-2.821
240900.000			-8.464			-2.821
241001.000			-8.463			-2.821
241101.000			-8.463			-2.821
241201.000			-8.463			-2.821
241301.000			-8.463			-2.821
241400.000			-8.463			-2.821
241500.000			-8.462			-2.821
241600.000			-8.462			-2.821
241700.000			-8.462			-2.821
241801.000			-8.462			-2.821
241900.000			-8.461			-2.820
242001.000			-8.461			-2.820
242102.000			-8.462			-2.821
242201.000			-8.462			-2.821
242300.000			-8.462			-2.821
242401.000			-8.463			-2.821
242500.000			-8.462			-2.821
242600.000			-8.462			-2.821
242701.000			-8.462			-2.821
242800.000			-8.461			-2.820
242901.000			-8.461			-2.820
243002.000			-8.461			-2.820
243101.000			-8.460			-2.820
243200.000			-8.460			-2.820
243301.000			-8.460			-2.820
243400.000			-8.460			-2.820
243500.000			-8.461			-2.820
243601.000			-8.460			-2.820
243700.000			-8.459			-2.820
243801.000			-8.459			-2.820
243902.000			-8.459			-2.820
244001.000			-8.460			-2.820
244100.000			-8.460			-2.820
244201.000			-8.459			-2.820
244300.000			-8.459			-2.820
244400.000			-8.459			-2.820
244501.000			-8.459			-2.820
244600.000			-8.459			-2.820
244700.000			-8.458			-2.819
244802.000			-8.457			-2.819
244901.000			-8.457			-2.819
245001.000			-8.458			-2.819
245100.000			-8.459			-2.820
245200.000			-8.458			-2.819
245301.000			-8.458			-2.819
245400.000			-8.458			-2.819
245500.000			-8.458			-2.819
245601.000			-8.457			-2.819
245701.000			-8.457			-2.819
245801.000			-8.457			-2.819
245901.000			-8.457			-2.819
246000.000			-8.457			-2.819
246100.000			-8.457			-2.819
246201.000			-8.457			-2.819
246300.000			-8.457			-2.819
246400.000			-8.456			-2.819
246501.000			-8.457			-2.819
246601.000			-8.456			-2.819
246701.000			-8.457			-2.819
246802.000			-8.457			-2.819
246900.000			-8.456			-2.819
247000.000			-8.455			-2.818
247101.000			-8.455			-2.818
247200.000			-8.456			-2.819
247300.000			-8.456			-2.819
247401.000			-8.456			-2.819
247500.000			-8.455			-2.818
247601.000			-8.455			-2.818
247702.000			-8.456			-2.819
247801.000			-8.455			-2.818
247900.000			-8.455			-2.818
248000.000			-8.455			-2.818
248100.000			-8.456			-2.819
248201.000			-8.454			-2.818
248300.000			-8.455			-2.818
248400.000			-8.455			-2.818
248501.000			-8.455			-2.818
248601.000			-8.455			-2.818
248701.000			-8.455			-2.818
248801.000			-8.455			-2.818
248900.000			-8.454			-2.818
249000.000			-8.454			-2.818
249101.000			-8.455			-2.818
249200.000			-8.455			-2.818
249300.000			-8.455			-2.818
249401.000			-8.454			-2.818
249501.000			-8.455			-2.818
249601.000			-8.453			-2.818
249702.000			-8.453			-2.818
249800.000			-8.453			-2.818
249900.000			-8.454			-2.818
250001.000			-8.454			-2.818
250100.000			-8.455			-2.818
250200.000			-8.454			-2.818
250301.000			-8.454			-2.818
250400.000			-8.454			-2.818
250501.000			-8.454			-2.818
250602.000			-8.454			-2.818
250700.000			-8.454			-2.818
250800.000			-8.454			-2.818
250901.000			-8.453			-2.818
251000.000			-8.453			-2.818
251100.000			-8.454			-2.818
251200.000			-8.454			-2.818
251300.000			-8.453			-2.818
251402.000			-8.452			-2.817
251501.000			-8.453			-2.818
251600.000			-8.453			-2.818
251701.000			-8.454			-2.818
251800.000			-8.451			-2.817
251900.000			-8.451			-2.817
252001.000			-8.452			-2.817
252100.000			-8.453			-2.818
252200.000			-8.453			-2.818
252302.000			-8.453			-2.818
252401.000			-8.452			-2.817
252501.000			-8.452			-2.817
252601.000			-8.451			-2.817
252700.000			-8.451			-2.817
252800.000			-8.452			-2.817
252901.000			-8.452			-2.817
253000.000			-8.451			-2.817
253100.000			-8.451			-2.817
253202.000			-8.451			-2.817
253301.000			-8.451			-2.817
253401.000			-8.452			-2.817
253501.000			-8.451			-2.817
253600.000			-8.452			-2.817
253700.000			-8.451			-2.817
253801.000			-8.451			-2.817
253900.000			-8.451			-2.817
254000.000			-8.451			-2.817
254101.000			-8.451			-2.817
254201.000			-8.450			-2.817
254302.000			-8.451			-2.817
254400.000			-8.452			-2.817
254500.000			-8.451			-2.817
254601.000			-8.449			-2.816
254700.000			-8.450			-2.817
254800.000			-8.450			-2.817
254901.000			-8.450			-2.817
255000.000			-8.450			-2.817
255101.000			-8.449			-2.816
255202.000			-8.450			-2.817
255301.000			-8.450			-2.817
255400.000			-8.449			-2.816
255501.000			-8.449			-2.816
255600.000			-8.449			-2.816
255700.000			-8.450			-2.817
255801.000			-8.449			-2.816
255900.000			-8.448			-2.816
256000.000			-8.448			-2.816
256102.000			-8.448			-2.816
256201.000			-8.448			-2.816
256300.000			-8.448			-2.816
256401.000			-8.448			-2.816
256500.000			-8.448			-2.816
256600.000			-8.448			-2.816
256701.000			-8.448			-2.816
256800.000			-8.448			-2.816
256900.000			-8.448			-2.816
257002.000			-8.448			-2.816
257101.000			-8.447			-2.816
257201.000			-8.447			-2.816
257301.000			-8.447			-2.816
257400.000			-8.447			-2.816
257500.000			-8.446			-2.815
257600.000			-8.447			-2.816
257700.000			-8.446			-2.815
257801.000			-8.446			-2.815
257900.000			-8.447			-2.816
258001.000			-8.446			-2.815
258102.000			-8.446			-2.815
258201.000			-8.447			-2.816
258300.000			-8.447			-2.816
258401.000			-8.446			-2.815
258500.000			-8.447			-2.816
258600.000			-8.447			-2.816
258701.000			-8.446			-2.815
258800.000			-8.445			-2.815
258900.000			-8.446			-2.815
259002.000			-8.445			-2.815
259101.000			-8.446			-2.815
259200.000			-8.447			-2.816
259301.000			-8.446			-2.815
259400.000			-8.445			-2.815
259500.000			-8.446			-2.815
259601.000			-8.447			-2.816
259700.000			-8.446			-2.815
259800.000			-8.446			-2.815
259902.000			-8.446			-2.815
260001.000			-8.446			-2.815
260101.000			-8.446			-2.815
260201.000			-8.445			-2.815
260300.000			-8.445			-2.815
260400.000			-8.445			-2.815
260501.000			-8.444			-2.815
260600.000			-8.444			-2.815
260700.000			-8.444			-2.815
260802.000			-8.444			-2.815
260901.000			-8.445			-2.815
261002.000			-8.445			-2.815
261100.000			-8.445			-2.815
261200.000			-8.445			-2.815
261301.000			-8.444			-2.815
261400.000			-8.444			-2.815
261500.000			-8.445			-2.815
261601.000			-8.445			-2.815
261700.000			-8.445			-2.815
261801.000			-8.445			-2.815
261902.000			-8.445			-2.815
262000.000			-8.445			-2.815
262100.000			-8.445			-2.815
262201.000			-8.445			-2.815
262300.000			-8.445			-2.815
262400.000			-8.445			-2.815
262501.000			-8.445			-2.815
262600.000			-8.445			-2.815
262701.000			-8.446			-2.815
262802.000			-8.445			-2.815
262901.000			-8.445			-2.815
263000.000			-8.446			-2.815
263101.000			-8.445			-2.815
263200.000			-8.445			-2.815
263300.000			-8.444			-2.815
263401.000			-8.444			-2.815
263500.000			-8.445			-2.815
263600.000			-8.445			-2.815
263702.000			-8.445			-2.815
263801.000			-8.444			-2.815
263900.000			-8.444			-2.815
264000.000			-8.444			-2.815
264100.000			-8.444			-2.815
264201.000			-8.444			-2.815
264300.000			-8.445			-2.815
264400.000			-8.445			-2.815
264501.000			-8.444			-2.815
264601.000			-8.444			-2.815
264701.000			-8.444			-2.815
264801.000			-8.443			-2.814
264900.000			-8.444			-2.815
265000.000			-8.445			-2.815
265101.000			-8.444			-2.815
265200.000			-8.443			-2.814
265300.000			-8.443			-2.814
265401.000			-8.444			-2.815
265501.000			-8.443			-2.814
265601.000			-8.444			-2.815
265701.000			-8.444			-2.815
265800.000			-8.443			-2.814
265900.000			-8.444			-2.815
266001.000			-8.444			-2.815
266100.000			-8.444			-2.815
266200.000			-8.443			-2.814
266301.000			-8.443			-2.814
266401.000			-8.444			-2.815
266501.000			-8.444			-2.815
266602.000			-8.443			-2.814
266700.000			-8.444			-2.815
266800.000			-8.443			-2.814
266901.000			-8.444			-2.815
267000.000			-8.444			-2.815
267100.000			-8.443			-2.814
267200.000			-8.443			-2.814
267300.000			-8.444			-2.815
267402.000			-8.443			-2.814
267501.000			-8.442			-2.814
267600.000			-8.444			-2.815
267701.000			-8.443			-2.814
267800.000			-8.442			-2.814
267900.000			-8.442			-2.814
268001.000			-8.443			-2.814
268100.000			-8.443			-2.814
268200.000			-8.443			-2.814
268302.000			-8.443			-2.814
268401.000			-8.444			-2.815
268501.000			-8.442			-2.814
268601.000			-8.443			-2.814
268700.000			-8.443			-2.814
268800.000			-8.442			-2.814
268901.000			-8.443			-2.814
269000.000			-8.443			-2.814
269100.000			-8.444			-2.815
269201.000			-8.444			-2.815
269301.000			-8.443			-2.814
269401.000			-8.443			-2.814
269501.000			-8.442			-2.814
269600.000			-8.442			-2.814
269700.000			-8.442			-2.814
269801.000			-8.442			-2.814
269900.000			-8.443			-2.814
270000.000			-8.443			-2.814
270101.000			-8.442			-2.814
270201.000			-8.442			-2.814
270302.000			-8.442			-2.814
270400.000			-8.442			-2.814
270500.000			-8.442			-2.814
270601.000			-8.442			-2.814
270700.000			-8.442			-2.814
270800.000			-8.440			-2.813
270901.000			-8.441			-2.814
271000.000			-8.441			-2.814
271101.000			-8.441			-2.814
271202.000			-8.441			-2.814
271301.000			-8.441			-2.814
271400.000			-8.441			-2.814
271501.000			-8.440			-2.813
271600.000			-8.441			-2.814
271700.000			-8.441			-2.814
271801.000			-8.441			-2.814
271900.000			-8.441			-2.814
272001.000			-8.440			-2.813
272102.000			-8.440			-2.813
272201.000			-8.441			-2.814
272300.000			-8.440			-2.813
272401.000			-8.440			-2.813
272500.000			-8.439			-2.813
272600.000			-8.440			-2.813
272701.000			-8.440			-2.813
272800.000			-8.440			-2.813
272901.000			-8.440			-2.813
273002.000			-8.439			-2.813
273101.000			-8.441			-2.814
273200.000			-8.441			-2.814
273301.000			-8.440			-2.813
273400.000			-8.440			-2.813
273500.000			-8.440			-2.813
273600.000			-8.439			-2.813
273700.000			-8.441			-2.814
273802.000			-8.439			-2.813
273901.000			-8.439			-2.813
274001.000			-8.439			-2.813
274101.000			-8.439			-2.813
274200.000			-8.439			-2.813
274300.000			-8.439			-2.813
274401.000			-8.439			-2.813
274500.000			-8.438			-2.813
274600.000			-8.438			-2.813
274701.000			-8.438			-2.813
274801.000			-8.438			-2.813
274901.000			-8.438			-2.813
275002.000			-8.438			-2.813
275100.000			-8.438			-2.813
275200.000			-8.438			-2.813
275301.000			-8.438			-2.813
275400.000			-8.437			-2.812
275500.000			-8.437			-2.812
275601.000			-8.438			-2.813
275700.000			-8.437			-2.812
275801.000			-8.436			-2.812
275902.000			-8.437			-2.812
276000.000			-8.437			-2.812
276100.000			-8.437			-2.812
276201.000			-8.436			-2.812
276300.000			-8.436			-2.812
276400.000			-8.436			-2.812
276501.000			-8.436			-2.812
276600.000			-8.435			-2.812
276702.000			-8.436			-2.812
276801.000			-8.437			-2.812
276901.000			-8.436			-2.812
277001.000			-8.436			-2.812
277100.000			-8.436			-2.812
277200.000			-8.435			-2.812
277301.000			-8.434			-2.811
277400.000			-8.435			-2.812
277500.000			-8.435			-2.812
277601.000			-8.436			-2.812
277701.000			-8.434			-2.811
277801.000			-8.434			-2.811
277901.000			-8.434			-2.811
278000.000			-8.435			-2.812
278100.000			-8.434			-2.811
278201.000			-8.433			-2.811
278300.000			-8.434			-2.811
278400.000			-8.434			-2.811
278501.000			-8.434			-2.811
278601.000			-8.434			-2.811
278701.000			-8.434			-2.811
278802.000			-8.434			-2.811
278900.000			-8.434			-2.811
279000.000			-8.434			-2.811
279101.000			-8.434			-2.811
279200.000			-8.434			-2.811
279300.000			-8.434			-2.811
279401.000			-8.433			-2.811
279501.000			-8.434			-2.811
279601.000			-8.435			-2.812
279702.000			-8.434			-2.811
279800.000			-8.433			-2.811
279900.000			-8.434			-2.811
280000.000			-8.434			-2.811
280100.000			-8.434			-2.811
280201.000			-8.435			-2.812
280300.000			-8.434			-2.811
280400.000			-8.434			-2.811
280502.000			-8.434			-2.811
280601.000			-8.434			-2.811
280701.000			-8.434			-2.811
280801.000			-8.434			-2.811
280900.000			-8.434			-2.811
281000.000			-8.435			-2.812
281101.000			-8.435			-2.812
281200.000			-8.434			-2.811
281300.000			-8.434			-2.811
281402.000			-8.434			-2.811
281501.000			-8.433			-2.811
281600.000			-8.434			-2.811
281701.000			-8.434			-2.811
281800.000			-8.434			-2.811
281900.000			-8.434			-2.811
282001.000			-8.434			-2.811
282100.000			-8.434			-2.811
282200.000			-8.434			-2.811
282302.000			-8.434			-2.811
282401.000			-8.433			-2.811
282500.000			-8.434			-2.811
282601.000			-8.433			-2.811
282700.000			-8.434			-2.811
282800.000			-8.433			-2.811
282901.000			-8.434			-2.811
283000.000			-8.434			-2.811
283100.000			-8.434			-2.811
283202.000			-8.434			-2.811
283301.000			-8.433			-2.811
283401.000			-8.433			-2.811
283500.000			-8.433			-2.811
283600.000			-8.433			-2.811
283701.000			-8.433			-2.811
283800.000			-8.433			-2.811
283900.000			-8.433			-2.811
284001.000			-8.433			-2.811
284101.000			-8.433			-2.811
284201.000			-8.432			-2.811
284301.000			-8.433			-2.811
284400.000			-8.433			-2.811
284500.000			-8.433			-2.811
284601.000			-8.433			-2.811
284700.000			-8.431			-2.810
284800.000			-8.432			-2.811
284901.000			-8.432			-2.811
285001.000			-8.431			-2.810
285101.000			-8.431			-2.810
285201.000			-8.432			-2.811
285300.000			-8.431			-2.810
285400.000			-8.431			-2.810
285501.000			-8.431			-2.810
285600.000			-8.431			-2.810
285700.000			-8.431			-2.810
285801.000			-8.431			-2.810
285901.000			-8.432			-2.811
286001.000			-8.431			-2.810
286101.000			-8.432			-2.811
286200.000			-8.431			-2.810
286300.000			-8.432			-2.811
286400.000			-8.432			-2.811
286500.000			-8.431			-2.810
286601.000			-8.431			-2.810
286700.000			-8.432			-2.811
286801.000			-8.431			-2.810
286902.000			-8.432			-2.811
287001.000			-8.432			-2.811
287100.000			-8.431			-2.810
287201.000			-8.431			-2.810
287300.000			-8.431			-2.810
287400.000			-8.431			-2.810
287501.000			-8.431			-2.810
287600.000			-8.431			-2.810
287700.000			-8.429			-2.810
287802.000			-8.429			-2.810
287901.000			-8.430			-2.810
288000.000			-8.430			-2.810
288101.000			-8.430			-2.810
288200.000			-8.430			-2.810
288300.000			-8.431			-2.810
288401.000			-8.431			-2.810
288500.000			-8.429			-2.810
288600.000			-8.429			-2.810
288702.000			-8.430			-2.810
288801.000			-8.430			-2.810
288901.000			-8.431			-2.810
289001.000			-8.431			-2.810
289100.000			-8.431			-2.810
289200.000			-8.431			-2.810
289301.000			-8.430			-2.810
289400.000			-8.429			-2.810
289500.000			-8.429			-2.810
289602.000			-8.430			-2.810
289701.000			-8.430			-2.810
289802.000			-8.430			-2.810
289900.000			-8.430			-2.810
290000.000			-8.429			-2.810
290101.000			-8.429			-2.810
290200.000			-8.429			-2.810
290300.000			-8.429			-2.810
290401.000			-8.430			-2.810
290500.000			-8.429			-2.810
290601.000			-8.429			-2.810
290702.000			-8.428			-2.809
290800.000			-8.428			-2.809
290900.000			-8.428			-2.809
291001.000			-8.430			-2.810
291100.000			-8.430			-2.810
291200.000			-8.429			-2.810
291301.000			-8.429			-2.810
291400.000			-8.428			-2.809
291501.000			-8.429			-2.810
291602.000			-8.429			-2.810
291701.000			-8.429			-2.810
291800.000			-8.429			-2.810
291901.000			-8.429			-2.810
292000.000			-8.428			-2.809
292100.000			-8.428			-2.809
292201.000			-8.428			-2.809
292300.000			-8.428			-2.809
292400.000			-8.428			-2.809
292502.000			-8.428			-2.809
292601.000			-8.429			-2.810
292700.000			-8.428			-2.809
292800.000			-8.429			-2.810
292900.000			-8.428			-2.809
293001.000			-8.428			-2.809
293100.000			-8.429			-2.810
293200.000			-8.429			-2.810
293301.000			-8.427			-2.809
293401.000			-8.428			-2.809
293501.000			-8.427			-2.809
293602.000			-8.427			-2.809
293700.000			-8.427			-2.809
293800.000			-8.426			-2.809
293901.000			-8.426			-2.809
294000.000			-8.426			-2.809
294100.000			-8.427			-2.809
294201.000			-8.427			-2.809
294300.000			-8.427			-2.809
294401.000			-8.426			-2.809
294502.000			-8.427			-2.809
294601.000			-8.426			-2.809
294700.000			-8.426			-2.809
294801.000			-8.426			-2.809
294900.000			-8.426			-2.809
295000.000			-8.426			-2.809
295101.000			-8.427			-2.809
295200.000			-8.426			-2.809
295300.000			-8.427			-2.809
295402.000			-8.427			-2.809
295501.000			-8.426			-2.809
295600.000			-8.426			-2.809
295701.000			-8.427			-2.809
295800.000			-8.425			-2.808
295900.000			-8.426			-2.809
296000.000			-8.426			-2.809
296100.000			-8.426			-2.809
296201.000			-8.426			-2.809
296301.000			-8.425			-2.808
296401.000			-8.425			-2.808
296502.000			-8.424			-2.808
296600.000			-8.425			-2.808
296700.000			-8.425			-2.808
296801.000			-8.425			-2.808
296900.000			-8.425			-2.808
297000.000			-8.426			-2.809
297101.000			-8.425			-2.808
297200.000			-8.426			-2.809
297301.000			-8.426			-2.809
297402.000			-8.425			-2.808
297501.000			-8.424			-2.808
297600.000			-8.424			-2.808
297701.000			-8.425			-2.808
297800.000			-8.424			-2.808
297900.000			-8.424			-2.808
298001.000			-8.424			-2.808
298100.000			-8.424			-2.808
298200.000			-8.423			-2.808
298302.000			-8.423			-2.808
298401.000			-8.423			-2.808
298500.000			-8.423			-2.808
298601.000			-8.423			-2.808
298700.000			-8.424			-2.808
298800.000			-8.424			-2.808
298901.000			-8.424			-2.808
299000.000			-8.424			-2.808
299100.000			-8.423			-2.808
299202.000			-8.422			-2.807
299301.000			-8.423			-2.808
299402.000			-8.423			-2.808
299500.000			-8.424			-2.808
299600.000			-8.424			-2.808
299701.000			-8.424			-2.808
299800.000			-8.423			-2.808
299900.000			-8.422			-2.807
