# Acquired on 21/12/2023 13:16:46 
# SPIDER: Creep_9mm_07714532C-1
# CREEP MEASUREMENT

# time [ms]		force [N]		stiffness [N/mm]
1.000			-16.330			-1.814
100.000			-17.173			-1.908
201.000			-17.510			-1.946
300.000			-17.505			-1.945
400.000			-17.414			-1.935
502.000			-17.285			-1.921
601.000			-17.237			-1.915
701.000			-17.194			-1.910
800.000			-17.155			-1.906
900.000			-17.121			-1.902
1001.000			-17.090			-1.899
1100.000			-17.062			-1.896
1200.000			-17.012			-1.890
1302.000			-16.989			-1.888
1401.000			-16.968			-1.885
1500.000			-16.948			-1.883
1601.000			-16.929			-1.881
1700.000			-16.911			-1.879
1800.000			-16.894			-1.877
1901.000			-16.878			-1.875
2000.000			-16.847			-1.872
2101.000			-16.832			-1.870
2202.000			-16.818			-1.869
2300.000			-16.805			-1.867
2400.000			-16.793			-1.866
2501.000			-16.780			-1.864
2600.000			-16.767			-1.863
2700.000			-16.745			-1.861
2802.000			-16.734			-1.859
2901.000			-16.723			-1.858
3000.000			-16.712			-1.857
3101.000			-16.703			-1.856
3200.000			-16.694			-1.855
3300.000			-16.684			-1.854
3401.000			-16.665			-1.852
3500.000			-16.656			-1.851
3601.000			-16.649			-1.850
3702.000			-16.640			-1.849
3800.000			-16.630			-1.848
3901.000			-16.622			-1.847
4000.000			-16.615			-1.846
4100.000			-16.608			-1.845
4201.000			-16.594			-1.844
4300.000			-16.586			-1.843
4401.000			-16.579			-1.842
4502.000			-16.572			-1.841
4600.000			-16.564			-1.840
4700.000			-16.557			-1.840
4801.000			-16.551			-1.839
4900.000			-16.538			-1.838
5000.000			-16.532			-1.837
5101.000			-16.525			-1.836
5201.000			-16.520			-1.836
5300.000			-16.514			-1.835
5401.000			-16.507			-1.834
5500.000			-16.501			-1.833
5600.000			-16.491			-1.832
5701.000			-16.485			-1.832
5800.000			-16.478			-1.831
5901.000			-16.474			-1.830
6002.000			-16.468			-1.830
6100.000			-16.463			-1.829
6200.000			-16.458			-1.829
6301.000			-16.447			-1.827
6400.000			-16.443			-1.827
6500.000			-16.438			-1.826
6601.000			-16.434			-1.826
6701.000			-16.429			-1.825
6801.000			-16.424			-1.825
6901.000			-16.420			-1.824
7000.000			-16.416			-1.824
7101.000			-16.405			-1.823
7200.000			-16.401			-1.822
7300.000			-16.398			-1.822
7402.000			-16.393			-1.821
7501.000			-16.389			-1.821
7601.000			-16.385			-1.821
7701.000			-16.380			-1.820
7800.000			-16.372			-1.819
7900.000			-16.367			-1.819
8001.000			-16.364			-1.818
8100.000			-16.359			-1.818
8201.000			-16.355			-1.817
8302.000			-16.352			-1.817
8400.000			-16.348			-1.816
8500.000			-16.341			-1.816
8601.000			-16.337			-1.815
8700.000			-16.334			-1.815
8800.000			-16.329			-1.814
8901.000			-16.327			-1.814
9001.000			-16.323			-1.814
9101.000			-16.319			-1.813
9201.000			-16.315			-1.813
9300.000			-16.309			-1.812
9400.000			-16.305			-1.812
9501.000			-16.301			-1.811
9600.000			-16.299			-1.811
9700.000			-16.295			-1.811
9802.000			-16.291			-1.810
9901.000			-16.288			-1.810
10000.000			-16.282			-1.809
10101.000			-16.278			-1.809
10200.000			-16.275			-1.808
10301.000			-16.272			-1.808
10400.000			-16.270			-1.808
10501.000			-16.266			-1.807
10602.000			-16.263			-1.807
10700.000			-16.258			-1.806
10800.000			-16.255			-1.806
10901.000			-16.251			-1.806
11000.000			-16.247			-1.805
11100.000			-16.244			-1.805
11201.000			-16.242			-1.805
11301.000			-16.240			-1.804
11401.000			-16.237			-1.804
11501.000			-16.231			-1.803
11600.000			-16.229			-1.803
11700.000			-16.226			-1.803
11801.000			-16.222			-1.802
11900.000			-16.220			-1.802
12000.000			-16.217			-1.802
12102.000			-16.214			-1.802
12201.000			-16.209			-1.801
12300.000			-16.206			-1.801
12401.000			-16.204			-1.800
12500.000			-16.201			-1.800
12600.000			-16.199			-1.800
12701.000			-16.196			-1.800
12800.000			-16.195			-1.799
12901.000			-16.188			-1.799
13002.000			-16.187			-1.799
13100.000			-16.184			-1.798
13200.000			-16.180			-1.798
13301.000			-16.178			-1.798
13400.000			-16.177			-1.797
13501.000			-16.175			-1.797
13600.000			-16.173			-1.797
13701.000			-16.166			-1.796
13802.000			-16.164			-1.796
13900.000			-16.162			-1.796
14000.000			-16.160			-1.796
14101.000			-16.158			-1.795
14200.000			-16.156			-1.795
14300.000			-16.153			-1.795
14401.000			-16.148			-1.794
14501.000			-16.147			-1.794
14601.000			-16.145			-1.794
14701.000			-16.142			-1.794
14800.000			-16.139			-1.793
14900.000			-16.137			-1.793
15001.000			-16.135			-1.793
15100.000			-16.131			-1.792
15200.000			-16.128			-1.792
15302.000			-16.127			-1.792
15401.000			-16.125			-1.792
15500.000			-16.122			-1.791
15601.000			-16.120			-1.791
15700.000			-16.118			-1.791
15800.000			-16.113			-1.790
15901.000			-16.112			-1.790
16001.000			-16.109			-1.790
16101.000			-16.107			-1.790
16201.000			-16.105			-1.789
16300.000			-16.103			-1.789
16400.000			-16.101			-1.789
16501.000			-16.099			-1.789
16600.000			-16.096			-1.788
16701.000			-16.094			-1.788
16801.000			-16.091			-1.788
16901.000			-16.090			-1.788
17001.000			-16.088			-1.788
17100.000			-16.086			-1.787
17200.000			-16.084			-1.787
17301.000			-16.081			-1.787
17400.000			-16.079			-1.787
17500.000			-16.076			-1.786
17602.000			-16.074			-1.786
17701.000			-16.073			-1.786
17800.000			-16.071			-1.786
17901.000			-16.070			-1.786
18000.000			-16.066			-1.785
18100.000			-16.064			-1.785
18201.000			-16.062			-1.785
18300.000			-16.060			-1.784
18401.000			-16.058			-1.784
18502.000			-16.056			-1.784
18600.000			-16.054			-1.784
18700.000			-16.054			-1.784
18801.000			-16.048			-1.783
18900.000			-16.048			-1.783
19000.000			-16.046			-1.783
19101.000			-16.044			-1.783
19201.000			-16.043			-1.783
19301.000			-16.040			-1.782
19401.000			-16.039			-1.782
19500.000			-16.035			-1.782
19600.000			-16.034			-1.782
19701.000			-16.033			-1.781
19800.000			-16.031			-1.781
19901.000			-16.029			-1.781
20001.000			-16.028			-1.781
20101.000			-16.026			-1.781
20201.000			-16.022			-1.780
20300.000			-16.020			-1.780
20400.000			-16.018			-1.780
20501.000			-16.017			-1.780
20600.000			-16.016			-1.780
20700.000			-16.015			-1.779
20802.000			-16.013			-1.779
20901.000			-16.009			-1.779
21000.000			-16.007			-1.779
21101.000			-16.006			-1.778
21200.000			-16.004			-1.778
21300.000			-16.002			-1.778
21401.000			-16.001			-1.778
21501.000			-16.000			-1.778
21601.000			-15.999			-1.778
21701.000			-15.995			-1.777
21800.000			-15.994			-1.777
21900.000			-15.994			-1.777
22001.000			-15.992			-1.777
22100.000			-15.989			-1.777
22200.000			-15.988			-1.776
22302.000			-15.987			-1.776
22401.000			-15.983			-1.776
22500.000			-15.983			-1.776
22601.000			-15.981			-1.776
22700.000			-15.980			-1.776
22800.000			-15.979			-1.775
22901.000			-15.977			-1.775
23000.000			-15.975			-1.775
23101.000			-15.972			-1.775
23201.000			-15.971			-1.775
23301.000			-15.969			-1.774
23401.000			-15.967			-1.774
23500.000			-15.965			-1.774
23600.000			-15.964			-1.774
23701.000			-15.963			-1.774
23800.000			-15.962			-1.774
23900.000			-15.959			-1.773
24002.000			-15.958			-1.773
24101.000			-15.956			-1.773
24200.000			-15.954			-1.773
24301.000			-15.953			-1.773
24400.000			-15.952			-1.772
24500.000			-15.951			-1.772
24601.000			-15.949			-1.772
24700.000			-15.947			-1.772
24801.000			-15.945			-1.772
24902.000			-15.944			-1.772
25000.000			-15.942			-1.771
25100.000			-15.940			-1.771
25201.000			-15.940			-1.771
25300.000			-15.937			-1.771
25400.000			-15.936			-1.771
25501.000			-15.934			-1.770
25601.000			-15.933			-1.770
25701.000			-15.931			-1.770
25801.000			-15.930			-1.770
25900.000			-15.930			-1.770
26000.000			-15.928			-1.770
26101.000			-15.925			-1.769
26200.000			-15.923			-1.769
26301.000			-15.922			-1.769
26401.000			-15.921			-1.769
26501.000			-15.921			-1.769
26601.000			-15.919			-1.769
26700.000			-15.918			-1.769
26800.000			-15.915			-1.768
26901.000			-15.914			-1.768
27000.000			-15.913			-1.768
27100.000			-15.913			-1.768
27202.000			-15.912			-1.768
27301.000			-15.910			-1.768
27400.000			-15.910			-1.768
27501.000			-15.907			-1.767
27600.000			-15.906			-1.767
27700.000			-15.905			-1.767
27801.000			-15.902			-1.767
27900.000			-15.901			-1.767
28001.000			-15.901			-1.767
28102.000			-15.899			-1.767
28200.000			-15.898			-1.766
28300.000			-15.895			-1.766
28401.000			-15.895			-1.766
28500.000			-15.894			-1.766
28600.000			-15.892			-1.766
28701.000			-15.892			-1.766
28801.000			-15.890			-1.766
28901.000			-15.888			-1.765
29001.000			-15.887			-1.765
29100.000			-15.885			-1.765
29200.000			-15.883			-1.765
29301.000			-15.882			-1.765
29400.000			-15.881			-1.765
29501.000			-15.881			-1.765
29600.000			-15.879			-1.764
29701.000			-15.878			-1.764
29802.000			-15.877			-1.764
29900.000			-15.876			-1.764
30000.000			-15.874			-1.764
30101.000			-15.872			-1.764
30200.000			-15.871			-1.763
30300.000			-15.870			-1.763
30401.000			-15.868			-1.763
30501.000			-15.867			-1.763
30601.000			-15.867			-1.763
30701.000			-15.864			-1.763
30800.000			-15.863			-1.763
30900.000			-15.862			-1.762
31001.000			-15.862			-1.762
31100.000			-15.861			-1.762
31200.000			-15.858			-1.762
31302.000			-15.857			-1.762
31401.000			-15.856			-1.762
31500.000			-15.856			-1.762
31601.000			-15.855			-1.762
31700.000			-15.853			-1.761
31800.000			-15.852			-1.761
31901.000			-15.851			-1.761
32000.000			-15.850			-1.761
32101.000			-15.848			-1.761
32202.000			-15.847			-1.761
32300.000			-15.846			-1.761
32400.000			-15.844			-1.760
32501.000			-15.843			-1.760
32600.000			-15.841			-1.760
32701.000			-15.841			-1.760
32800.000			-15.840			-1.760
32901.000			-15.839			-1.760
33002.000			-15.838			-1.760
33101.000			-15.837			-1.760
33200.000			-15.836			-1.760
33301.000			-15.836			-1.760
33400.000			-15.831			-1.759
33500.000			-15.831			-1.759
33601.000			-15.830			-1.759
33701.000			-15.828			-1.759
33801.000			-15.828			-1.759
33901.000			-15.828			-1.759
34000.000			-15.826			-1.758
34100.000			-15.824			-1.758
34201.000			-15.823			-1.758
34300.000			-15.822			-1.758
34400.000			-15.821			-1.758
34502.000			-15.820			-1.758
34601.000			-15.819			-1.758
34700.000			-15.818			-1.758
34801.000			-15.817			-1.757
34900.000			-15.816			-1.757
35000.000			-15.815			-1.757
35101.000			-15.815			-1.757
35200.000			-15.812			-1.757
35301.000			-15.811			-1.757
35402.000			-15.810			-1.757
35500.000			-15.809			-1.757
35600.000			-15.807			-1.756
35701.000			-15.807			-1.756
35800.000			-15.806			-1.756
35901.000			-15.804			-1.756
36000.000			-15.804			-1.756
36100.000			-15.804			-1.756
36202.000			-15.802			-1.756
36301.000			-15.800			-1.756
36400.000			-15.798			-1.755
36501.000			-15.799			-1.755
36600.000			-15.798			-1.755
36700.000			-15.797			-1.755
36801.000			-15.796			-1.755
36900.000			-15.796			-1.755
37001.000			-15.794			-1.755
37102.000			-15.793			-1.755
37200.000			-15.791			-1.755
37300.000			-15.790			-1.754
37401.000			-15.790			-1.754
37500.000			-15.789			-1.754
37600.000			-15.787			-1.754
37701.000			-15.786			-1.754
37801.000			-15.786			-1.754
37901.000			-15.785			-1.754
38001.000			-15.785			-1.754
38100.000			-15.783			-1.754
38200.000			-15.781			-1.753
38301.000			-15.781			-1.753
38400.000			-15.780			-1.753
38500.000			-15.778			-1.753
38601.000			-15.776			-1.753
38701.000			-15.775			-1.753
38801.000			-15.774			-1.753
38901.000			-15.774			-1.753
39000.000			-15.774			-1.753
39101.000			-15.774			-1.753
39200.000			-15.771			-1.752
39300.000			-15.770			-1.752
39401.000			-15.771			-1.752
39501.000			-15.771			-1.752
39601.000			-15.768			-1.752
39701.000			-15.768			-1.752
39800.000			-15.767			-1.752
39900.000			-15.764			-1.752
40001.000			-15.764			-1.752
40100.000			-15.763			-1.751
40200.000			-15.762			-1.751
40302.000			-15.761			-1.751
40401.000			-15.761			-1.751
40500.000			-15.760			-1.751
40601.000			-15.758			-1.751
40700.000			-15.758			-1.751
40800.000			-15.755			-1.751
40901.000			-15.755			-1.751
41000.000			-15.755			-1.751
41101.000			-15.754			-1.750
41202.000			-15.753			-1.750
41300.000			-15.751			-1.750
41400.000			-15.750			-1.750
41501.000			-15.750			-1.750
41600.000			-15.750			-1.750
41700.000			-15.749			-1.750
41801.000			-15.748			-1.750
41901.000			-15.746			-1.750
42001.000			-15.746			-1.750
42101.000			-15.744			-1.749
42200.000			-15.744			-1.749
42301.000			-15.742			-1.749
42400.000			-15.742			-1.749
42500.000			-15.740			-1.749
42601.000			-15.739			-1.749
42701.000			-15.739			-1.749
42801.000			-15.739			-1.749
42901.000			-15.737			-1.749
43000.000			-15.736			-1.748
43100.000			-15.736			-1.748
43201.000			-15.735			-1.748
43300.000			-15.733			-1.748
43400.000			-15.732			-1.748
43502.000			-15.732			-1.748
43601.000			-15.730			-1.748
43700.000			-15.730			-1.748
43801.000			-15.730			-1.748
43900.000			-15.729			-1.748
44000.000			-15.728			-1.748
44101.000			-15.727			-1.747
44200.000			-15.727			-1.747
44301.000			-15.725			-1.747
44402.000			-15.724			-1.747
44500.000			-15.723			-1.747
44600.000			-15.723			-1.747
44701.000			-15.722			-1.747
44800.000			-15.720			-1.747
44900.000			-15.719			-1.747
45001.000			-15.719			-1.747
45101.000			-15.717			-1.746
45201.000			-15.716			-1.746
45301.000			-15.716			-1.746
45400.000			-15.715			-1.746
45501.000			-15.714			-1.746
45600.000			-15.714			-1.746
45700.000			-15.714			-1.746
45801.000			-15.711			-1.746
45901.000			-15.710			-1.746
46001.000			-15.710			-1.746
46102.000			-15.709			-1.745
46200.000			-15.710			-1.746
46300.000			-15.709			-1.745
46401.000			-15.708			-1.745
46500.000			-15.705			-1.745
46600.000			-15.704			-1.745
46701.000			-15.704			-1.745
46801.000			-15.703			-1.745
46901.000			-15.703			-1.745
47001.000			-15.703			-1.745
47100.000			-15.702			-1.745
47200.000			-15.701			-1.745
47301.000			-15.699			-1.744
47400.000			-15.698			-1.744
47500.000			-15.698			-1.744
47602.000			-15.697			-1.744
47701.000			-15.698			-1.744
47800.000			-15.697			-1.744
47901.000			-15.695			-1.744
48000.000			-15.694			-1.744
48100.000			-15.693			-1.744
48201.000			-15.693			-1.744
48300.000			-15.692			-1.744
48401.000			-15.692			-1.744
48502.000			-15.691			-1.743
48600.000			-15.690			-1.743
48701.000			-15.688			-1.743
48800.000			-15.688			-1.743
48900.000			-15.686			-1.743
49001.000			-15.686			-1.743
49100.000			-15.685			-1.743
49200.000			-15.684			-1.743
49302.000			-15.685			-1.743
49401.000			-15.684			-1.743
49500.000			-15.683			-1.743
49601.000			-15.681			-1.742
49700.000			-15.681			-1.742
49800.000			-15.680			-1.742
49901.000			-15.679			-1.742
50000.000			-15.678			-1.742
50101.000			-15.678			-1.742
50202.000			-15.676			-1.742
50300.000			-15.676			-1.742
50400.000			-15.675			-1.742
50501.000			-15.674			-1.742
50600.000			-15.674			-1.742
50700.000			-15.673			-1.741
50801.000			-15.672			-1.741
50901.000			-15.671			-1.741
51001.000			-15.671			-1.741
51101.000			-15.671			-1.741
51200.000			-15.670			-1.741
51300.000			-15.669			-1.741
51401.000			-15.668			-1.741
51500.000			-15.668			-1.741
51600.000			-15.667			-1.741
51702.000			-15.666			-1.741
51801.000			-15.665			-1.741
51901.000			-15.664			-1.740
52000.000			-15.663			-1.740
52100.000			-15.663			-1.740
52201.000			-15.661			-1.740
52300.000			-15.661			-1.740
52400.000			-15.660			-1.740
52502.000			-15.660			-1.740
52601.000			-15.660			-1.740
52700.000			-15.658			-1.740
52801.000			-15.658			-1.740
52900.000			-15.657			-1.740
53000.000			-15.657			-1.740
53101.000			-15.656			-1.740
53200.000			-15.655			-1.739
53301.000			-15.655			-1.739
53402.000			-15.654			-1.739
53500.000			-15.653			-1.739
53600.000			-15.652			-1.739
53701.000			-15.652			-1.739
53800.000			-15.650			-1.739
53900.000			-15.649			-1.739
54001.000			-15.649			-1.739
54101.000			-15.648			-1.739
54201.000			-15.648			-1.739
54301.000			-15.648			-1.739
54400.000			-15.646			-1.738
54500.000			-15.646			-1.738
54601.000			-15.645			-1.738
54700.000			-15.644			-1.738
54800.000			-15.644			-1.738
54902.000			-15.643			-1.738
55001.000			-15.642			-1.738
55101.000			-15.641			-1.738
55200.000			-15.641			-1.738
55300.000			-15.639			-1.738
55401.000			-15.638			-1.738
55500.000			-15.638			-1.738
55600.000			-15.637			-1.737
55702.000			-15.637			-1.737
55801.000			-15.637			-1.737
55900.000			-15.636			-1.737
56001.000			-15.635			-1.737
56100.000			-15.633			-1.737
56200.000			-15.633			-1.737
56301.000			-15.632			-1.737
56400.000			-15.632			-1.737
56500.000			-15.632			-1.737
56602.000			-15.632			-1.737
56701.000			-15.631			-1.737
56800.000			-15.629			-1.737
56901.000			-15.628			-1.736
57000.000			-15.628			-1.736
57100.000			-15.627			-1.736
57201.000			-15.626			-1.736
57300.000			-15.626			-1.736
57401.000			-15.626			-1.736
57502.000			-15.625			-1.736
57600.000			-15.625			-1.736
57700.000			-15.624			-1.736
57801.000			-15.622			-1.736
57900.000			-15.621			-1.736
58000.000			-15.620			-1.736
58101.000			-15.621			-1.736
58201.000			-15.620			-1.736
58302.000			-15.620			-1.736
58400.000			-15.618			-1.735
58500.000			-15.618			-1.735
58601.000			-15.618			-1.735
58700.000			-15.617			-1.735
58800.000			-15.616			-1.735
58901.000			-15.616			-1.735
59001.000			-15.615			-1.735
59101.000			-15.614			-1.735
59201.000			-15.613			-1.735
59300.000			-15.612			-1.735
59400.000			-15.611			-1.735
59501.000			-15.611			-1.735
59600.000			-15.610			-1.734
59700.000			-15.609			-1.734
59802.000			-15.609			-1.734
59901.000			-15.609			-1.734
60000.000			-15.608			-1.734
60101.000			-15.606			-1.734
60200.000			-15.606			-1.734
60300.000			-15.606			-1.734
60401.000			-15.606			-1.734
60500.000			-15.604			-1.734
60601.000			-15.604			-1.734
60702.000			-15.603			-1.734
60800.000			-15.602			-1.734
60900.000			-15.602			-1.734
61001.000			-15.602			-1.734
61100.000			-15.599			-1.733
61200.000			-15.600			-1.733
61301.000			-15.600			-1.733
61401.000			-15.600			-1.733
61502.000			-15.599			-1.733
61600.000			-15.599			-1.733
61700.000			-15.599			-1.733
61801.000			-15.598			-1.733
61900.000			-15.596			-1.733
62000.000			-15.594			-1.733
62101.000			-15.594			-1.733
62201.000			-15.594			-1.733
62301.000			-15.593			-1.733
62401.000			-15.593			-1.733
62500.000			-15.592			-1.732
62600.000			-15.591			-1.732
62701.000			-15.590			-1.732
62800.000			-15.589			-1.732
62900.000			-15.589			-1.732
63002.000			-15.589			-1.732
63101.000			-15.589			-1.732
63200.000			-15.588			-1.732
63301.000			-15.587			-1.732
63400.000			-15.587			-1.732
63500.000			-15.586			-1.732
63601.000			-15.585			-1.732
63700.000			-15.584			-1.732
63801.000			-15.584			-1.732
63902.000			-15.584			-1.732
64000.000			-15.582			-1.731
64100.000			-15.582			-1.731
64201.000			-15.581			-1.731
64300.000			-15.580			-1.731
64400.000			-15.580			-1.731
64501.000			-15.580			-1.731
64601.000			-15.579			-1.731
64702.000			-15.579			-1.731
64801.000			-15.577			-1.731
64900.000			-15.577			-1.731
65001.000			-15.577			-1.731
65100.000			-15.576			-1.731
65200.000			-15.576			-1.731
65301.000			-15.575			-1.731
65400.000			-15.574			-1.730
65501.000			-15.574			-1.730
65602.000			-15.573			-1.730
65700.000			-15.573			-1.730
65800.000			-15.571			-1.730
65901.000			-15.569			-1.730
66000.000			-15.570			-1.730
66100.000			-15.571			-1.730
66201.000			-15.569			-1.730
66301.000			-15.568			-1.730
66401.000			-15.568			-1.730
66501.000			-15.568			-1.730
66600.000			-15.566			-1.730
66700.000			-15.566			-1.730
66801.000			-15.566			-1.730
66900.000			-15.565			-1.729
67000.000			-15.565			-1.729
67102.000			-15.564			-1.729
67201.000			-15.564			-1.729
67300.000			-15.564			-1.729
67401.000			-15.563			-1.729
67500.000			-15.562			-1.729
67600.000			-15.562			-1.729
67701.000			-15.561			-1.729
67800.000			-15.560			-1.729
67901.000			-15.559			-1.729
68001.000			-15.559			-1.729
68101.000			-15.559			-1.729
68201.000			-15.557			-1.729
68300.000			-15.557			-1.729
68400.000			-15.557			-1.729
68501.000			-15.557			-1.729
68600.000			-15.556			-1.728
68700.000			-15.555			-1.728
68802.000			-15.555			-1.728
68901.000			-15.554			-1.728
69000.000			-15.553			-1.728
69101.000			-15.553			-1.728
69200.000			-15.551			-1.728
69300.000			-15.551			-1.728
69401.000			-15.550			-1.728
69500.000			-15.550			-1.728
69600.000			-15.549			-1.728
69702.000			-15.549			-1.728
69801.000			-15.548			-1.728
69900.000			-15.546			-1.727
70001.000			-15.548			-1.728
70100.000			-15.547			-1.727
70200.000			-15.546			-1.727
70301.000			-15.546			-1.727
70400.000			-15.545			-1.727
70501.000			-15.545			-1.727
70602.000			-15.544			-1.727
70700.000			-15.543			-1.727
70800.000			-15.543			-1.727
70901.000			-15.542			-1.727
71000.000			-15.542			-1.727
71101.000			-15.541			-1.727
71200.000			-15.540			-1.727
71301.000			-15.540			-1.727
71402.000			-15.538			-1.726
71500.000			-15.538			-1.726
71600.000			-15.538			-1.726
71701.000			-15.538			-1.726
71800.000			-15.537			-1.726
71900.000			-15.536			-1.726
72001.000			-15.536			-1.726
72101.000			-15.535			-1.726
72201.000			-15.535			-1.726
72301.000			-15.535			-1.726
72400.000			-15.534			-1.726
72500.000			-15.533			-1.726
72601.000			-15.532			-1.726
72700.000			-15.532			-1.726
72800.000			-15.532			-1.726
72902.000			-15.531			-1.726
73001.000			-15.530			-1.726
73100.000			-15.530			-1.726
73201.000			-15.531			-1.726
73300.000			-15.531			-1.726
73400.000			-15.529			-1.725
73501.000			-15.527			-1.725
73600.000			-15.527			-1.725
73701.000			-15.527			-1.725
73802.000			-15.527			-1.725
73900.000			-15.525			-1.725
74000.000			-15.525			-1.725
74101.000			-15.524			-1.725
74200.000			-15.523			-1.725
74301.000			-15.523			-1.725
74400.000			-15.524			-1.725
74501.000			-15.524			-1.725
74602.000			-15.523			-1.725
74700.000			-15.523			-1.725
74800.000			-15.521			-1.725
74901.000			-15.520			-1.724
75000.000			-15.520			-1.724
75100.000			-15.519			-1.724
75201.000			-15.519			-1.724
75301.000			-15.517			-1.724
75401.000			-15.518			-1.724
75502.000			-15.518			-1.724
75600.000			-15.517			-1.724
75700.000			-15.515			-1.724
75801.000			-15.515			-1.724
75900.000			-15.515			-1.724
76000.000			-15.515			-1.724
76101.000			-15.514			-1.724
76201.000			-15.513			-1.724
76301.000			-15.513			-1.724
76401.000			-15.513			-1.724
76500.000			-15.512			-1.724
76600.000			-15.511			-1.723
76701.000			-15.511			-1.723
76800.000			-15.510			-1.723
76900.000			-15.510			-1.723
77002.000			-15.510			-1.723
77101.000			-15.509			-1.723
77200.000			-15.509			-1.723
77301.000			-15.507			-1.723
77400.000			-15.506			-1.723
77501.000			-15.506			-1.723
77600.000			-15.506			-1.723
77700.000			-15.505			-1.723
77802.000			-15.505			-1.723
77901.000			-15.504			-1.723
78000.000			-15.504			-1.723
78101.000			-15.503			-1.723
78200.000			-15.503			-1.723
78300.000			-15.503			-1.723
78401.000			-15.503			-1.723
78500.000			-15.503			-1.723
78601.000			-15.501			-1.722
78702.000			-15.500			-1.722
78800.000			-15.500			-1.722
78900.000			-15.499			-1.722
79001.000			-15.499			-1.722
79100.000			-15.498			-1.722
79200.000			-15.497			-1.722
79301.000			-15.498			-1.722
79400.000			-15.497			-1.722
79501.000			-15.496			-1.722
79602.000			-15.496			-1.722
79700.000			-15.495			-1.722
79800.000			-15.496			-1.722
79901.000			-15.495			-1.722
80000.000			-15.493			-1.721
80100.000			-15.493			-1.721
80201.000			-15.493			-1.721
80301.000			-15.492			-1.721
80401.000			-15.492			-1.721
80502.000			-15.492			-1.721
80600.000			-15.492			-1.721
80701.000			-15.491			-1.721
80800.000			-15.490			-1.721
80900.000			-15.488			-1.721
81001.000			-15.490			-1.721
81100.000			-15.490			-1.721
81201.000			-15.488			-1.721
81302.000			-15.488			-1.721
81400.000			-15.488			-1.721
81500.000			-15.487			-1.721
81601.000			-15.487			-1.721
81700.000			-15.487			-1.721
81800.000			-15.486			-1.721
81901.000			-15.485			-1.721
82001.000			-15.485			-1.721
82101.000			-15.485			-1.721
82201.000			-15.484			-1.720
82300.000			-15.483			-1.720
82400.000			-15.483			-1.720
82501.000			-15.483			-1.720
82600.000			-15.482			-1.720
82700.000			-15.481			-1.720
82802.000			-15.481			-1.720
82901.000			-15.481			-1.720
83000.000			-15.480			-1.720
83101.000			-15.480			-1.720
83200.000			-15.480			-1.720
83300.000			-15.479			-1.720
83401.000			-15.478			-1.720
83500.000			-15.477			-1.720
83600.000			-15.477			-1.720
83702.000			-15.476			-1.720
83801.000			-15.476			-1.720
83901.000			-15.477			-1.720
84000.000			-15.475			-1.719
84100.000			-15.474			-1.719
84201.000			-15.475			-1.719
84300.000			-15.475			-1.719
84400.000			-15.474			-1.719
84502.000			-15.473			-1.719
84601.000			-15.472			-1.719
84700.000			-15.471			-1.719
84801.000			-15.472			-1.719
84900.000			-15.471			-1.719
85000.000			-15.471			-1.719
85101.000			-15.471			-1.719
85200.000			-15.470			-1.719
85301.000			-15.469			-1.719
85402.000			-15.468			-1.719
85500.000			-15.468			-1.719
85600.000			-15.467			-1.719
85701.000			-15.467			-1.719
85800.000			-15.466			-1.718
85900.000			-15.467			-1.719
86001.000			-15.467			-1.719
86101.000			-15.466			-1.718
86201.000			-15.465			-1.718
86301.000			-15.465			-1.718
86400.000			-15.464			-1.718
86500.000			-15.464			-1.718
86601.000			-15.464			-1.718
86700.000			-15.463			-1.718
86800.000			-15.462			-1.718
86901.000			-15.461			-1.718
87001.000			-15.462			-1.718
87102.000			-15.462			-1.718
87200.000			-15.461			-1.718
87300.000			-15.460			-1.718
87401.000			-15.459			-1.718
87500.000			-15.460			-1.718
87600.000			-15.460			-1.718
87701.000			-15.459			-1.718
87801.000			-15.458			-1.718
87901.000			-15.458			-1.718
88001.000			-15.458			-1.718
88100.000			-15.456			-1.717
88200.000			-15.456			-1.717
88301.000			-15.456			-1.717
88400.000			-15.456			-1.717
88500.000			-15.455			-1.717
88601.000			-15.454			-1.717
88701.000			-15.453			-1.717
88801.000			-15.453			-1.717
88901.000			-15.453			-1.717
89000.000			-15.452			-1.717
89100.000			-15.452			-1.717
89201.000			-15.452			-1.717
89300.000			-15.452			-1.717
89400.000			-15.451			-1.717
89502.000			-15.450			-1.717
89601.000			-15.449			-1.717
89701.000			-15.449			-1.717
89801.000			-15.449			-1.717
89900.000			-15.448			-1.716
90000.000			-15.448			-1.716
90101.000			-15.447			-1.716
90200.000			-15.446			-1.716
90301.000			-15.447			-1.716
90401.000			-15.447			-1.716
90501.000			-15.446			-1.716
90601.000			-15.446			-1.716
90700.000			-15.446			-1.716
90800.000			-15.445			-1.716
90901.000			-15.444			-1.716
91000.000			-15.444			-1.716
91100.000			-15.444			-1.716
91202.000			-15.443			-1.716
91301.000			-15.444			-1.716
91400.000			-15.443			-1.716
91501.000			-15.441			-1.716
91600.000			-15.441			-1.716
91700.000			-15.441			-1.716
91801.000			-15.439			-1.715
91900.000			-15.439			-1.715
92001.000			-15.439			-1.715
92102.000			-15.439			-1.715
92200.000			-15.439			-1.715
92300.000			-15.439			-1.715
92401.000			-15.438			-1.715
92500.000			-15.437			-1.715
92600.000			-15.437			-1.715
92701.000			-15.437			-1.715
92801.000			-15.436			-1.715
92901.000			-15.435			-1.715
93001.000			-15.435			-1.715
93100.000			-15.435			-1.715
93200.000			-15.434			-1.715
93301.000			-15.434			-1.715
93400.000			-15.434			-1.715
93501.000			-15.432			-1.715
93601.000			-15.432			-1.715
93701.000			-15.431			-1.715
93802.000			-15.431			-1.715
93900.000			-15.431			-1.715
94000.000			-15.429			-1.714
94101.000			-15.430			-1.714
94200.000			-15.429			-1.714
94300.000			-15.429			-1.714
94401.000			-15.429			-1.714
94501.000			-15.428			-1.714
94601.000			-15.428			-1.714
94701.000			-15.429			-1.714
94800.000			-15.427			-1.714
94900.000			-15.426			-1.714
95001.000			-15.427			-1.714
95100.000			-15.427			-1.714
95200.000			-15.426			-1.714
95302.000			-15.424			-1.714
95401.000			-15.425			-1.714
95500.000			-15.425			-1.714
95601.000			-15.424			-1.714
95700.000			-15.423			-1.714
95800.000			-15.422			-1.714
95901.000			-15.422			-1.714
96000.000			-15.422			-1.714
96101.000			-15.421			-1.713
96202.000			-15.422			-1.714
96300.000			-15.421			-1.713
96400.000			-15.420			-1.713
96501.000			-15.419			-1.713
96600.000			-15.419			-1.713
96701.000			-15.420			-1.713
96800.000			-15.419			-1.713
96901.000			-15.418			-1.713
97002.000			-15.417			-1.713
97101.000			-15.418			-1.713
97200.000			-15.417			-1.713
97301.000			-15.417			-1.713
97400.000			-15.417			-1.713
97500.000			-15.416			-1.713
97601.000			-15.416			-1.713
97700.000			-15.415			-1.713
97801.000			-15.415			-1.713
97902.000			-15.414			-1.713
98000.000			-15.413			-1.713
98100.000			-15.414			-1.713
98201.000			-15.414			-1.713
98300.000			-15.414			-1.713
98400.000			-15.413			-1.713
98501.000			-15.411			-1.712
98601.000			-15.411			-1.712
98701.000			-15.411			-1.712
98801.000			-15.411			-1.712
98900.000			-15.410			-1.712
99000.000			-15.410			-1.712
99101.000			-15.410			-1.712
99200.000			-15.409			-1.712
99300.000			-15.409			-1.712
99402.000			-15.409			-1.712
99501.000			-15.409			-1.712
99600.000			-15.408			-1.712
99701.000			-15.408			-1.712
99800.000			-15.407			-1.712
99901.000			-15.407			-1.712
100000.000			-15.406			-1.712
100100.000			-15.406			-1.712
100201.000			-15.405			-1.712
100301.000			-15.404			-1.712
100401.000			-15.404			-1.712
100501.000			-15.405			-1.712
100600.000			-15.405			-1.712
100700.000			-15.404			-1.712
100801.000			-15.403			-1.711
100900.000			-15.402			-1.711
101000.000			-15.402			-1.711
101102.000			-15.402			-1.711
101201.000			-15.402			-1.711
101300.000			-15.401			-1.711
101401.000			-15.401			-1.711
101500.000			-15.399			-1.711
101600.000			-15.400			-1.711
101701.000			-15.399			-1.711
101800.000			-15.398			-1.711
101901.000			-15.398			-1.711
102002.000			-15.399			-1.711
102100.000			-15.398			-1.711
102200.000			-15.397			-1.711
102301.000			-15.397			-1.711
102400.000			-15.397			-1.711
102500.000			-15.396			-1.711
102601.000			-15.396			-1.711
102700.000			-15.396			-1.711
102801.000			-15.395			-1.711
102902.000			-15.395			-1.711
103000.000			-15.395			-1.711
103101.000			-15.395			-1.711
103200.000			-15.394			-1.710
103300.000			-15.393			-1.710
103401.000			-15.392			-1.710
103500.000			-15.392			-1.710
103601.000			-15.392			-1.710
103702.000			-15.392			-1.710
103800.000			-15.391			-1.710
103900.000			-15.390			-1.710
104001.000			-15.390			-1.710
104100.000			-15.391			-1.710
104200.000			-15.389			-1.710
104301.000			-15.390			-1.710
104401.000			-15.389			-1.710
104501.000			-15.388			-1.710
104601.000			-15.388			-1.710
104700.000			-15.388			-1.710
104800.000			-15.388			-1.710
104901.000			-15.387			-1.710
105000.000			-15.386			-1.710
105100.000			-15.385			-1.709
105201.000			-15.384			-1.709
105301.000			-15.384			-1.709
105401.000			-15.385			-1.709
105501.000			-15.385			-1.709
105600.000			-15.384			-1.709
105700.000			-15.384			-1.709
105801.000			-15.383			-1.709
105900.000			-15.383			-1.709
106000.000			-15.382			-1.709
106102.000			-15.382			-1.709
106201.000			-15.382			-1.709
106301.000			-15.382			-1.709
106400.000			-15.383			-1.709
106500.000			-15.382			-1.709
106601.000			-15.381			-1.709
106700.000			-15.381			-1.709
106800.000			-15.380			-1.709
106901.000			-15.380			-1.709
107001.000			-15.379			-1.709
107101.000			-15.379			-1.709
107201.000			-15.378			-1.709
107300.000			-15.377			-1.709
107400.000			-15.377			-1.709
107501.000			-15.377			-1.709
107600.000			-15.376			-1.708
107700.000			-15.375			-1.708
107802.000			-15.376			-1.708
107901.000			-15.375			-1.708
108000.000			-15.376			-1.708
108101.000			-15.375			-1.708
108200.000			-15.375			-1.708
108300.000			-15.375			-1.708
108401.000			-15.374			-1.708
108500.000			-15.374			-1.708
108600.000			-15.373			-1.708
108702.000			-15.373			-1.708
108801.000			-15.372			-1.708
108900.000			-15.372			-1.708
109001.000			-15.372			-1.708
109100.000			-15.371			-1.708
109200.000			-15.371			-1.708
109301.000			-15.371			-1.708
109400.000			-15.370			-1.708
109502.000			-15.371			-1.708
109601.000			-15.370			-1.708
109701.000			-15.369			-1.708
109801.000			-15.368			-1.708
109900.000			-15.368			-1.708
110000.000			-15.368			-1.708
110101.000			-15.366			-1.707
110200.000			-15.367			-1.707
110300.000			-15.367			-1.707
110402.000			-15.367			-1.707
110501.000			-15.367			-1.707
110600.000			-15.366			-1.707
110701.000			-15.366			-1.707
110800.000			-15.364			-1.707
110900.000			-15.364			-1.707
111001.000			-15.363			-1.707
111100.000			-15.364			-1.707
111200.000			-15.364			-1.707
111302.000			-15.363			-1.707
111401.000			-15.363			-1.707
111500.000			-15.362			-1.707
111601.000			-15.362			-1.707
111700.000			-15.362			-1.707
111800.000			-15.362			-1.707
111901.000			-15.361			-1.707
112000.000			-15.362			-1.707
112101.000			-15.361			-1.707
112202.000			-15.360			-1.707
112300.000			-15.360			-1.707
112400.000			-15.360			-1.707
112501.000			-15.359			-1.707
112600.000			-15.359			-1.707
112701.000			-15.358			-1.706
112800.000			-15.358			-1.706
112901.000			-15.357			-1.706
113002.000			-15.357			-1.706
113101.000			-15.356			-1.706
113200.000			-15.356			-1.706
113301.000			-15.356			-1.706
113400.000			-15.356			-1.706
113500.000			-15.355			-1.706
113601.000			-15.355			-1.706
113700.000			-15.353			-1.706
113801.000			-15.355			-1.706
113902.000			-15.355			-1.706
114000.000			-15.355			-1.706
114100.000			-15.354			-1.706
114201.000			-15.353			-1.706
114300.000			-15.354			-1.706
114400.000			-15.354			-1.706
114501.000			-15.351			-1.706
114601.000			-15.351			-1.706
114701.000			-15.350			-1.706
114801.000			-15.351			-1.706
114900.000			-15.350			-1.706
115000.000			-15.350			-1.706
115101.000			-15.350			-1.706
115200.000			-15.349			-1.705
115300.000			-15.349			-1.705
115402.000			-15.348			-1.705
115501.000			-15.349			-1.705
115600.000			-15.348			-1.705
115701.000			-15.348			-1.705
115800.000			-15.346			-1.705
115901.000			-15.347			-1.705
116000.000			-15.346			-1.705
116100.000			-15.346			-1.705
116201.000			-15.346			-1.705
116301.000			-15.346			-1.705
116401.000			-15.345			-1.705
116501.000			-15.345			-1.705
116600.000			-15.344			-1.705
116700.000			-15.343			-1.705
116801.000			-15.343			-1.705
116900.000			-15.343			-1.705
117000.000			-15.343			-1.705
117102.000			-15.342			-1.705
117201.000			-15.342			-1.705
117300.000			-15.341			-1.705
117401.000			-15.342			-1.705
117500.000			-15.341			-1.705
117600.000			-15.341			-1.705
117701.000			-15.342			-1.705
117800.000			-15.341			-1.705
117901.000			-15.340			-1.704
118002.000			-15.339			-1.704
118101.000			-15.340			-1.704
118200.000			-15.339			-1.704
118301.000			-15.338			-1.704
118400.000			-15.338			-1.704
118500.000			-15.338			-1.704
118601.000			-15.338			-1.704
118700.000			-15.338			-1.704
118801.000			-15.337			-1.704
118902.000			-15.337			-1.704
119000.000			-15.336			-1.704
119101.000			-15.336			-1.704
119200.000			-15.337			-1.704
119300.000			-15.337			-1.704
119401.000			-15.336			-1.704
119500.000			-15.335			-1.704
119600.000			-15.334			-1.704
119702.000			-15.334			-1.704
119801.000			-15.333			-1.704
119900.000			-15.334			-1.704
120001.000			-15.333			-1.704
120100.000			-15.333			-1.704
120200.000			-15.332			-1.704
120301.000			-15.332			-1.704
120400.000			-15.332			-1.704
120501.000			-15.332			-1.704
120602.000			-15.332			-1.704
120700.000			-15.331			-1.703
120800.000			-15.331			-1.703
120901.000			-15.331			-1.703
121000.000			-15.330			-1.703
121100.000			-15.330			-1.703
121201.000			-15.329			-1.703
121301.000			-15.328			-1.703
121401.000			-15.328			-1.703
121501.000			-15.329			-1.703
121600.000			-15.329			-1.703
121700.000			-15.327			-1.703
121801.000			-15.327			-1.703
121900.000			-15.326			-1.703
122000.000			-15.326			-1.703
122101.000			-15.327			-1.703
122201.000			-15.327			-1.703
122302.000			-15.326			-1.703
122400.000			-15.325			-1.703
122500.000			-15.325			-1.703
122601.000			-15.325			-1.703
122700.000			-15.324			-1.703
122800.000			-15.324			-1.703
122901.000			-15.324			-1.703
123001.000			-15.323			-1.703
123101.000			-15.323			-1.703
123201.000			-15.323			-1.703
123300.000			-15.322			-1.702
123400.000			-15.322			-1.702
123501.000			-15.322			-1.702
123600.000			-15.322			-1.702
123700.000			-15.321			-1.702
123802.000			-15.321			-1.702
123901.000			-15.320			-1.702
124000.000			-15.319			-1.702
124101.000			-15.319			-1.702
124200.000			-15.319			-1.702
124300.000			-15.319			-1.702
124401.000			-15.318			-1.702
124500.000			-15.318			-1.702
124601.000			-15.318			-1.702
124702.000			-15.318			-1.702
124800.000			-15.317			-1.702
124900.000			-15.316			-1.702
125001.000			-15.316			-1.702
125100.000			-15.316			-1.702
125200.000			-15.317			-1.702
125301.000			-15.315			-1.702
125401.000			-15.314			-1.702
125502.000			-15.314			-1.702
125601.000			-15.315			-1.702
125700.000			-15.314			-1.702
125801.000			-15.314			-1.702
125900.000			-15.314			-1.702
126000.000			-15.314			-1.702
126101.000			-15.313			-1.701
126200.000			-15.312			-1.701
126301.000			-15.312			-1.701
126402.000			-15.312			-1.701
126500.000			-15.313			-1.701
126600.000			-15.312			-1.701
126701.000			-15.311			-1.701
126800.000			-15.311			-1.701
126900.000			-15.310			-1.701
127001.000			-15.310			-1.701
127101.000			-15.311			-1.701
127201.000			-15.310			-1.701
127301.000			-15.309			-1.701
127400.000			-15.309			-1.701
127500.000			-15.310			-1.701
127601.000			-15.308			-1.701
127700.000			-15.308			-1.701
127800.000			-15.307			-1.701
127901.000			-15.307			-1.701
128001.000			-15.307			-1.701
128101.000			-15.307			-1.701
128201.000			-15.306			-1.701
128300.000			-15.306			-1.701
128400.000			-15.306			-1.701
128501.000			-15.305			-1.701
128600.000			-15.305			-1.701
128701.000			-15.305			-1.701
128801.000			-15.304			-1.700
128901.000			-15.305			-1.701
129001.000			-15.305			-1.701
129100.000			-15.303			-1.700
129200.000			-15.304			-1.700
129301.000			-15.304			-1.700
129400.000			-15.303			-1.700
129500.000			-15.303			-1.700
129602.000			-15.302			-1.700
129701.000			-15.303			-1.700
129801.000			-15.301			-1.700
129901.000			-15.302			-1.700
130000.000			-15.301			-1.700
130100.000			-15.300			-1.700
130201.000			-15.301			-1.700
130300.000			-15.301			-1.700
130400.000			-15.300			-1.700
130502.000			-15.298			-1.700
130601.000			-15.299			-1.700
130700.000			-15.300			-1.700
130801.000			-15.298			-1.700
130900.000			-15.297			-1.700
131000.000			-15.297			-1.700
131101.000			-15.296			-1.700
131200.000			-15.297			-1.700
131301.000			-15.296			-1.700
131402.000			-15.296			-1.700
131501.000			-15.297			-1.700
131600.000			-15.296			-1.700
131701.000			-15.295			-1.699
131800.000			-15.296			-1.700
131901.000			-15.296			-1.700
132000.000			-15.293			-1.699
132100.000			-15.294			-1.699
132202.000			-15.293			-1.699
132301.000			-15.293			-1.699
132401.000			-15.293			-1.699
132501.000			-15.293			-1.699
132600.000			-15.293			-1.699
132700.000			-15.292			-1.699
132801.000			-15.293			-1.699
132900.000			-15.292			-1.699
133000.000			-15.292			-1.699
133101.000			-15.292			-1.699
133201.000			-15.291			-1.699
133301.000			-15.290			-1.699
133401.000			-15.290			-1.699
133500.000			-15.289			-1.699
133600.000			-15.290			-1.699
133701.000			-15.289			-1.699
133800.000			-15.288			-1.699
133900.000			-15.288			-1.699
134001.000			-15.288			-1.699
134101.000			-15.288			-1.699
134201.000			-15.287			-1.699
134301.000			-15.288			-1.699
134400.000			-15.287			-1.699
134500.000			-15.287			-1.699
134601.000			-15.288			-1.699
134700.000			-15.287			-1.699
134800.000			-15.287			-1.699
134901.000			-15.285			-1.698
135001.000			-15.285			-1.698
135102.000			-15.285			-1.698
135201.000			-15.286			-1.698
135300.000			-15.285			-1.698
135401.000			-15.284			-1.698
135500.000			-15.285			-1.698
135600.000			-15.284			-1.698
135701.000			-15.283			-1.698
135800.000			-15.283			-1.698
135900.000			-15.283			-1.698
136002.000			-15.283			-1.698
136101.000			-15.283			-1.698
136200.000			-15.282			-1.698
136301.000			-15.281			-1.698
136400.000			-15.281			-1.698
136500.000			-15.281			-1.698
136601.000			-15.281			-1.698
136700.000			-15.282			-1.698
136800.000			-15.281			-1.698
136902.000			-15.280			-1.698
137001.000			-15.279			-1.698
137101.000			-15.278			-1.698
137201.000			-15.278			-1.698
137300.000			-15.278			-1.698
137400.000			-15.278			-1.698
137501.000			-15.278			-1.698
137600.000			-15.278			-1.698
137700.000			-15.278			-1.698
137801.000			-15.276			-1.697
137901.000			-15.276			-1.697
138001.000			-15.276			-1.697
138101.000			-15.276			-1.697
138200.000			-15.276			-1.697
138301.000			-15.276			-1.697
138400.000			-15.276			-1.697
138500.000			-15.274			-1.697
138601.000			-15.275			-1.697
138700.000			-15.275			-1.697
138801.000			-15.276			-1.697
138902.000			-15.274			-1.697
139001.000			-15.274			-1.697
139100.000			-15.273			-1.697
139201.000			-15.273			-1.697
139300.000			-15.273			-1.697
139400.000			-15.273			-1.697
139501.000			-15.273			-1.697
139600.000			-15.272			-1.697
139700.000			-15.272			-1.697
139802.000			-15.271			-1.697
139901.000			-15.272			-1.697
140000.000			-15.272			-1.697
140101.000			-15.270			-1.697
140200.000			-15.270			-1.697
140300.000			-15.270			-1.697
140401.000			-15.270			-1.697
140500.000			-15.270			-1.697
140600.000			-15.269			-1.697
140702.000			-15.269			-1.697
140801.000			-15.269			-1.697
140900.000			-15.268			-1.696
141001.000			-15.268			-1.696
141100.000			-15.268			-1.696
141200.000			-15.268			-1.696
141301.000			-15.267			-1.696
141400.000			-15.267			-1.696
141501.000			-15.266			-1.696
141601.000			-15.265			-1.696
141701.000			-15.265			-1.696
141801.000			-15.265			-1.696
141900.000			-15.264			-1.696
142000.000			-15.264			-1.696
142101.000			-15.265			-1.696
142200.000			-15.265			-1.696
142300.000			-15.265			-1.696
142401.000			-15.264			-1.696
142501.000			-15.263			-1.696
142601.000			-15.263			-1.696
142701.000			-15.263			-1.696
142800.000			-15.263			-1.696
142900.000			-15.263			-1.696
143001.000			-15.263			-1.696
143100.000			-15.262			-1.696
143200.000			-15.262			-1.696
143301.000			-15.261			-1.696
143401.000			-15.260			-1.696
143501.000			-15.260			-1.696
143601.000			-15.260			-1.696
143700.000			-15.260			-1.696
143800.000			-15.259			-1.695
143901.000			-15.260			-1.696
144000.000			-15.260			-1.696
144100.000			-15.259			-1.695
144201.000			-15.259			-1.695
144301.000			-15.259			-1.695
144401.000			-15.258			-1.695
144502.000			-15.257			-1.695
144600.000			-15.257			-1.695
144701.000			-15.258			-1.695
144800.000			-15.257			-1.695
144900.000			-15.257			-1.695
145001.000			-15.256			-1.695
145100.000			-15.255			-1.695
145200.000			-15.256			-1.695
145302.000			-15.255			-1.695
145401.000			-15.255			-1.695
145501.000			-15.255			-1.695
145601.000			-15.254			-1.695
145700.000			-15.253			-1.695
145800.000			-15.253			-1.695
145901.000			-15.254			-1.695
146000.000			-15.254			-1.695
146100.000			-15.254			-1.695
146201.000			-15.254			-1.695
146301.000			-15.253			-1.695
146401.000			-15.253			-1.695
146501.000			-15.252			-1.695
146600.000			-15.253			-1.695
146700.000			-15.252			-1.695
146801.000			-15.251			-1.695
146900.000			-15.252			-1.695
147000.000			-15.251			-1.695
147101.000			-15.251			-1.695
147201.000			-15.251			-1.695
147301.000			-15.250			-1.694
147401.000			-15.250			-1.694
147500.000			-15.250			-1.694
147600.000			-15.249			-1.694
147701.000			-15.249			-1.694
147800.000			-15.250			-1.694
147901.000			-15.249			-1.694
148000.000			-15.248			-1.694
148101.000			-15.248			-1.694
148202.000			-15.247			-1.694
148301.000			-15.247			-1.694
148400.000			-15.247			-1.694
148501.000			-15.247			-1.694
148600.000			-15.247			-1.694
148700.000			-15.246			-1.694
148801.000			-15.247			-1.694
148900.000			-15.247			-1.694
149000.000			-15.246			-1.694
149102.000			-15.245			-1.694
149201.000			-15.244			-1.694
149300.000			-15.244			-1.694
149401.000			-15.244			-1.694
149500.000			-15.245			-1.694
149600.000			-15.244			-1.694
149701.000			-15.243			-1.694
149800.000			-15.243			-1.694
149900.000			-15.242			-1.694
150002.000			-15.242			-1.694
150101.000			-15.242			-1.694
150201.000			-15.242			-1.694
150301.000			-15.241			-1.693
150400.000			-15.241			-1.693
150500.000			-15.241			-1.693
150601.000			-15.242			-1.694
150700.000			-15.241			-1.693
150800.000			-15.240			-1.693
150902.000			-15.240			-1.693
151001.000			-15.240			-1.693
151102.000			-15.239			-1.693
151200.000			-15.239			-1.693
151300.000			-15.239			-1.693
151401.000			-15.239			-1.693
151500.000			-15.238			-1.693
151600.000			-15.239			-1.693
151701.000			-15.237			-1.693
151801.000			-15.238			-1.693
151901.000			-15.238			-1.693
152002.000			-15.237			-1.693
152100.000			-15.237			-1.693
152200.000			-15.237			-1.693
152301.000			-15.237			-1.693
152400.000			-15.236			-1.693
152500.000			-15.237			-1.693
152601.000			-15.236			-1.693
152701.000			-15.235			-1.693
152801.000			-15.234			-1.693
152902.000			-15.234			-1.693
153000.000			-15.235			-1.693
153100.000			-15.235			-1.693
153201.000			-15.234			-1.693
153300.000			-15.234			-1.693
153400.000			-15.234			-1.693
153501.000			-15.234			-1.693
153600.000			-15.234			-1.693
153701.000			-15.234			-1.693
153802.000			-15.233			-1.693
153900.000			-15.231			-1.692
154000.000			-15.232			-1.692
154101.000			-15.233			-1.693
154200.000			-15.232			-1.692
154301.000			-15.232			-1.692
154400.000			-15.230			-1.692
154500.000			-15.230			-1.692
154602.000			-15.229			-1.692
154701.000			-15.230			-1.692
154800.000			-15.231			-1.692
154901.000			-15.230			-1.692
155000.000			-15.230			-1.692
155100.000			-15.229			-1.692
155201.000			-15.230			-1.692
155300.000			-15.229			-1.692
155400.000			-15.228			-1.692
155502.000			-15.228			-1.692
155601.000			-15.228			-1.692
155700.000			-15.228			-1.692
155801.000			-15.228			-1.692
155900.000			-15.227			-1.692
156000.000			-15.227			-1.692
156101.000			-15.227			-1.692
156200.000			-15.227			-1.692
156300.000			-15.225			-1.692
156402.000			-15.224			-1.692
156501.000			-15.225			-1.692
156600.000			-15.226			-1.692
156701.000			-15.225			-1.692
156800.000			-15.225			-1.692
156900.000			-15.224			-1.692
157001.000			-15.225			-1.692
157100.000			-15.224			-1.692
157200.000			-15.225			-1.692
157302.000			-15.223			-1.691
157401.000			-15.223			-1.691
157501.000			-15.223			-1.691
157600.000			-15.222			-1.691
157700.000			-15.223			-1.691
157801.000			-15.223			-1.691
157900.000			-15.223			-1.691
158000.000			-15.222			-1.691
158101.000			-15.221			-1.691
158201.000			-15.221			-1.691
158301.000			-15.221			-1.691
158402.000			-15.220			-1.691
158500.000			-15.219			-1.691
158600.000			-15.220			-1.691
158701.000			-15.220			-1.691
158800.000			-15.220			-1.691
158900.000			-15.219			-1.691
159001.000			-15.218			-1.691
159100.000			-15.218			-1.691
159201.000			-15.218			-1.691
159302.000			-15.219			-1.691
159400.000			-15.218			-1.691
159500.000			-15.217			-1.691
159601.000			-15.217			-1.691
159700.000			-15.217			-1.691
159800.000			-15.216			-1.691
159901.000			-15.216			-1.691
160000.000			-15.216			-1.691
160101.000			-15.216			-1.691
160202.000			-15.215			-1.691
160301.000			-15.215			-1.691
160400.000			-15.215			-1.691
160501.000			-15.215			-1.691
160600.000			-15.214			-1.690
160701.000			-15.214			-1.690
160800.000			-15.214			-1.690
160900.000			-15.214			-1.690
161002.000			-15.214			-1.690
161101.000			-15.214			-1.690
161201.000			-15.213			-1.690
161301.000			-15.212			-1.690
161400.000			-15.212			-1.690
161500.000			-15.213			-1.690
161601.000			-15.213			-1.690
161700.000			-15.212			-1.690
161800.000			-15.211			-1.690
161902.000			-15.211			-1.690
162001.000			-15.212			-1.690
162101.000			-15.211			-1.690
162201.000			-15.210			-1.690
162300.000			-15.210			-1.690
162400.000			-15.210			-1.690
162501.000			-15.210			-1.690
162600.000			-15.210			-1.690
162700.000			-15.210			-1.690
162802.000			-15.210			-1.690
162901.000			-15.209			-1.690
163001.000			-15.210			-1.690
163101.000			-15.210			-1.690
163200.000			-15.210			-1.690
163300.000			-15.208			-1.690
163401.000			-15.208			-1.690
163500.000			-15.208			-1.690
163600.000			-15.207			-1.690
163701.000			-15.207			-1.690
163801.000			-15.207			-1.690
163902.000			-15.206			-1.690
164000.000			-15.206			-1.690
164100.000			-15.207			-1.690
164201.000			-15.207			-1.690
164300.000			-15.207			-1.690
164400.000			-15.206			-1.690
164501.000			-15.206			-1.690
164600.000			-15.206			-1.690
164701.000			-15.205			-1.689
164802.000			-15.204			-1.689
164900.000			-15.205			-1.689
165000.000			-15.204			-1.689
165101.000			-15.203			-1.689
165200.000			-15.204			-1.689
165300.000			-15.203			-1.689
165401.000			-15.203			-1.689
165500.000			-15.202			-1.689
165601.000			-15.203			-1.689
165702.000			-15.201			-1.689
165800.000			-15.202			-1.689
165900.000			-15.201			-1.689
166001.000			-15.201			-1.689
166100.000			-15.201			-1.689
166200.000			-15.201			-1.689
166301.000			-15.200			-1.689
166400.000			-15.200			-1.689
166501.000			-15.199			-1.689
166602.000			-15.200			-1.689
166701.000			-15.199			-1.689
166800.000			-15.199			-1.689
166901.000			-15.199			-1.689
167000.000			-15.199			-1.689
167101.000			-15.198			-1.689
167200.000			-15.199			-1.689
167300.000			-15.199			-1.689
167401.000			-15.197			-1.689
167501.000			-15.197			-1.689
167601.000			-15.198			-1.689
167702.000			-15.198			-1.689
167800.000			-15.196			-1.688
167900.000			-15.196			-1.688
168001.000			-15.196			-1.688
168100.000			-15.197			-1.689
168200.000			-15.196			-1.688
168301.000			-15.196			-1.688
168400.000			-15.196			-1.688
168501.000			-15.196			-1.688
168602.000			-15.195			-1.688
168700.000			-15.194			-1.688
168800.000			-15.195			-1.688
168901.000			-15.195			-1.688
169000.000			-15.195			-1.688
169100.000			-15.194			-1.688
169201.000			-15.193			-1.688
169300.000			-15.193			-1.688
169400.000			-15.192			-1.688
169502.000			-15.192			-1.688
169601.000			-15.192			-1.688
169700.000			-15.192			-1.688
169801.000			-15.192			-1.688
169900.000			-15.192			-1.688
170000.000			-15.192			-1.688
170101.000			-15.191			-1.688
170200.000			-15.191			-1.688
170301.000			-15.190			-1.688
170401.000			-15.191			-1.688
170501.000			-15.190			-1.688
170601.000			-15.190			-1.688
170700.000			-15.190			-1.688
170800.000			-15.189			-1.688
170901.000			-15.189			-1.688
171000.000			-15.190			-1.688
171100.000			-15.190			-1.688
171201.000			-15.189			-1.688
171301.000			-15.190			-1.688
171401.000			-15.188			-1.688
171501.000			-15.188			-1.688
171600.000			-15.188			-1.688
171700.000			-15.188			-1.688
171801.000			-15.187			-1.687
171900.000			-15.187			-1.687
172000.000			-15.186			-1.687
172101.000			-15.186			-1.687
172200.000			-15.186			-1.687
172301.000			-15.186			-1.687
172402.000			-15.186			-1.687
172500.000			-15.185			-1.687
172600.000			-15.186			-1.687
172701.000			-15.186			-1.687
172800.000			-15.185			-1.687
172900.000			-15.184			-1.687
173001.000			-15.184			-1.687
173100.000			-15.185			-1.687
173201.000			-15.185			-1.687
173302.000			-15.184			-1.687
173401.000			-15.183			-1.687
173501.000			-15.182			-1.687
173600.000			-15.182			-1.687
173700.000			-15.182			-1.687
173801.000			-15.183			-1.687
173900.000			-15.183			-1.687
174000.000			-15.183			-1.687
174101.000			-15.182			-1.687
174201.000			-15.181			-1.687
174301.000			-15.181			-1.687
174401.000			-15.180			-1.687
174500.000			-15.180			-1.687
174600.000			-15.180			-1.687
174701.000			-15.180			-1.687
174800.000			-15.180			-1.687
174900.000			-15.179			-1.687
175001.000			-15.180			-1.687
175101.000			-15.180			-1.687
175201.000			-15.179			-1.687
175302.000			-15.180			-1.687
175400.000			-15.179			-1.687
175500.000			-15.179			-1.687
175601.000			-15.179			-1.687
175700.000			-15.179			-1.687
175800.000			-15.178			-1.686
175901.000			-15.178			-1.686
176000.000			-15.177			-1.686
176101.000			-15.178			-1.686
176202.000			-15.177			-1.686
176300.000			-15.176			-1.686
176400.000			-15.175			-1.686
176501.000			-15.177			-1.686
176600.000			-15.176			-1.686
176701.000			-15.176			-1.686
176800.000			-15.175			-1.686
176900.000			-15.174			-1.686
177002.000			-15.174			-1.686
177101.000			-15.174			-1.686
177201.000			-15.173			-1.686
177301.000			-15.174			-1.686
177400.000			-15.173			-1.686
177500.000			-15.173			-1.686
177601.000			-15.173			-1.686
177700.000			-15.172			-1.686
177800.000			-15.172			-1.686
177901.000			-15.172			-1.686
178001.000			-15.173			-1.686
178101.000			-15.173			-1.686
178201.000			-15.172			-1.686
178300.000			-15.170			-1.686
178400.000			-15.171			-1.686
178501.000			-15.171			-1.686
178600.000			-15.171			-1.686
178700.000			-15.171			-1.686
178801.000			-15.171			-1.686
178901.000			-15.171			-1.686
179001.000			-15.170			-1.686
179102.000			-15.170			-1.686
179200.000			-15.170			-1.686
179300.000			-15.170			-1.686
179401.000			-15.169			-1.685
179500.000			-15.170			-1.686
179600.000			-15.170			-1.686
179701.000			-15.170			-1.686
179800.000			-15.169			-1.685
179902.000			-15.169			-1.685
180001.000			-15.168			-1.685
180101.000			-15.168			-1.685
180201.000			-15.168			-1.685
180300.000			-15.167			-1.685
180400.000			-15.168			-1.685
180501.000			-15.168			-1.685
180600.000			-15.166			-1.685
180700.000			-15.166			-1.685
180801.000			-15.166			-1.685
180901.000			-15.167			-1.685
181001.000			-15.165			-1.685
181101.000			-15.164			-1.685
181200.000			-15.165			-1.685
181300.000			-15.165			-1.685
181401.000			-15.165			-1.685
181500.000			-15.166			-1.685
181600.000			-15.164			-1.685
181701.000			-15.165			-1.685
181801.000			-15.164			-1.685
181901.000			-15.164			-1.685
182001.000			-15.165			-1.685
182100.000			-15.164			-1.685
182200.000			-15.164			-1.685
182301.000			-15.163			-1.685
182400.000			-15.163			-1.685
182500.000			-15.163			-1.685
182601.000			-15.163			-1.685
182701.000			-15.162			-1.685
182801.000			-15.162			-1.685
182902.000			-15.162			-1.685
183000.000			-15.162			-1.685
183101.000			-15.160			-1.684
183200.000			-15.162			-1.685
183300.000			-15.162			-1.685
183401.000			-15.160			-1.684
183500.000			-15.160			-1.684
183600.000			-15.159			-1.684
183702.000			-15.158			-1.684
183801.000			-15.159			-1.684
183900.000			-15.160			-1.684
184001.000			-15.159			-1.684
184100.000			-15.159			-1.684
184200.000			-15.158			-1.684
184301.000			-15.158			-1.684
184400.000			-15.159			-1.684
184500.000			-15.158			-1.684
184602.000			-15.157			-1.684
184701.000			-15.157			-1.684
184801.000			-15.157			-1.684
184901.000			-15.157			-1.684
185000.000			-15.157			-1.684
185100.000			-15.157			-1.684
185201.000			-15.156			-1.684
185300.000			-15.155			-1.684
185400.000			-15.156			-1.684
185501.000			-15.155			-1.684
185601.000			-15.156			-1.684
185701.000			-15.156			-1.684
185801.000			-15.156			-1.684
185900.000			-15.156			-1.684
186000.000			-15.156			-1.684
186101.000			-15.154			-1.684
186200.000			-15.155			-1.684
186301.000			-15.155			-1.684
186400.000			-15.154			-1.684
186501.000			-15.154			-1.684
186602.000			-15.154			-1.684
186701.000			-15.153			-1.684
186800.000			-15.153			-1.684
186901.000			-15.153			-1.684
187000.000			-15.152			-1.684
187100.000			-15.151			-1.683
187201.000			-15.153			-1.684
187300.000			-15.152			-1.684
187400.000			-15.151			-1.683
187502.000			-15.151			-1.683
187601.000			-15.150			-1.683
187700.000			-15.150			-1.683
187801.000			-15.150			-1.683
187900.000			-15.150			-1.683
188000.000			-15.151			-1.683
188101.000			-15.151			-1.683
188200.000			-15.150			-1.683
188300.000			-15.150			-1.683
188402.000			-15.150			-1.683
188501.000			-15.150			-1.683
188601.000			-15.149			-1.683
188701.000			-15.149			-1.683
188800.000			-15.149			-1.683
188900.000			-15.148			-1.683
189001.000			-15.147			-1.683
189100.000			-15.147			-1.683
189200.000			-15.147			-1.683
189301.000			-15.147			-1.683
189401.000			-15.147			-1.683
189502.000			-15.147			-1.683
189601.000			-15.146			-1.683
189700.000			-15.147			-1.683
189801.000			-15.146			-1.683
189900.000			-15.146			-1.683
190000.000			-15.145			-1.683
190101.000			-15.146			-1.683
190200.000			-15.146			-1.683
190300.000			-15.145			-1.683
190402.000			-15.145			-1.683
190501.000			-15.145			-1.683
190600.000			-15.145			-1.683
190701.000			-15.145			-1.683
190800.000			-15.144			-1.683
190900.000			-15.143			-1.683
191001.000			-15.143			-1.683
191100.000			-15.143			-1.683
191200.000			-15.142			-1.682
191302.000			-15.143			-1.683
191401.000			-15.143			-1.683
191500.000			-15.142			-1.682
191601.000			-15.141			-1.682
191700.000			-15.142			-1.682
191800.000			-15.143			-1.683
191901.000			-15.140			-1.682
192000.000			-15.140			-1.682
192100.000			-15.140			-1.682
192202.000			-15.141			-1.682
192301.000			-15.140			-1.682
192400.000			-15.140			-1.682
192501.000			-15.140			-1.682
192600.000			-15.139			-1.682
192701.000			-15.139			-1.682
192800.000			-15.140			-1.682
192900.000			-15.140			-1.682
193001.000			-15.140			-1.682
193100.000			-15.139			-1.682
193201.000			-15.139			-1.682
193302.000			-15.138			-1.682
193400.000			-15.138			-1.682
193500.000			-15.137			-1.682
193601.000			-15.138			-1.682
193700.000			-15.139			-1.682
193800.000			-15.138			-1.682
193901.000			-15.137			-1.682
194000.000			-15.137			-1.682
194101.000			-15.135			-1.682
194202.000			-15.135			-1.682
194301.000			-15.136			-1.682
194400.000			-15.136			-1.682
194501.000			-15.136			-1.682
194600.000			-15.136			-1.682
194700.000			-15.136			-1.682
194801.000			-15.134			-1.682
194900.000			-15.134			-1.682
195001.000			-15.134			-1.682
195102.000			-15.134			-1.682
195201.000			-15.135			-1.682
195300.000			-15.135			-1.682
195401.000			-15.135			-1.682
195500.000			-15.133			-1.681
195600.000			-15.133			-1.681
195701.000			-15.133			-1.681
195800.000			-15.133			-1.681
195901.000			-15.133			-1.681
196001.000			-15.133			-1.681
196101.000			-15.132			-1.681
196201.000			-15.132			-1.681
196300.000			-15.132			-1.681
196400.000			-15.131			-1.681
196501.000			-15.130			-1.681
196600.000			-15.131			-1.681
196700.000			-15.131			-1.681
196801.000			-15.131			-1.681
196901.000			-15.130			-1.681
197001.000			-15.131			-1.681
197101.000			-15.129			-1.681
197200.000			-15.130			-1.681
197300.000			-15.130			-1.681
197401.000			-15.129			-1.681
197500.000			-15.130			-1.681
197600.000			-15.130			-1.681
197701.000			-15.129			-1.681
197801.000			-15.129			-1.681
197901.000			-15.129			-1.681
198002.000			-15.129			-1.681
198100.000			-15.128			-1.681
198200.000			-15.128			-1.681
198301.000			-15.128			-1.681
198400.000			-15.127			-1.681
198500.000			-15.127			-1.681
198601.000			-15.127			-1.681
198700.000			-15.126			-1.681
198801.000			-15.125			-1.681
198902.000			-15.126			-1.681
199001.000			-15.126			-1.681
199101.000			-15.126			-1.681
199200.000			-15.126			-1.681
199300.000			-15.126			-1.681
199401.000			-15.126			-1.681
199500.000			-15.126			-1.681
199600.000			-15.125			-1.681
199701.000			-15.124			-1.680
199801.000			-15.124			-1.680
199901.000			-15.124			-1.680
200002.000			-15.124			-1.680
200100.000			-15.124			-1.680
200200.000			-15.123			-1.680
200301.000			-15.124			-1.680
200400.000			-15.124			-1.680
200500.000			-15.123			-1.680
200601.000			-15.123			-1.680
200701.000			-15.123			-1.680
200801.000			-15.123			-1.680
200901.000			-15.122			-1.680
201000.000			-15.122			-1.680
201100.000			-15.122			-1.680
201201.000			-15.121			-1.680
201300.000			-15.121			-1.680
201400.000			-15.122			-1.680
201501.000			-15.121			-1.680
201601.000			-15.120			-1.680
201701.000			-15.120			-1.680
201801.000			-15.120			-1.680
201900.000			-15.119			-1.680
202000.000			-15.120			-1.680
202101.000			-15.119			-1.680
202200.000			-15.119			-1.680
202301.000			-15.120			-1.680
202400.000			-15.120			-1.680
202501.000			-15.120			-1.680
202602.000			-15.120			-1.680
202700.000			-15.120			-1.680
202800.000			-15.119			-1.680
202901.000			-15.118			-1.680
203000.000			-15.117			-1.680
203100.000			-15.117			-1.680
203201.000			-15.117			-1.680
203301.000			-15.117			-1.680
203401.000			-15.117			-1.680
203502.000			-15.117			-1.680
203600.000			-15.117			-1.680
203700.000			-15.116			-1.680
203801.000			-15.116			-1.680
203900.000			-15.115			-1.679
204000.000			-15.115			-1.679
204101.000			-15.115			-1.679
204201.000			-15.116			-1.680
204301.000			-15.114			-1.679
204402.000			-15.116			-1.680
204500.000			-15.115			-1.679
204600.000			-15.115			-1.679
204701.000			-15.114			-1.679
204800.000			-15.113			-1.679
204900.000			-15.112			-1.679
205001.000			-15.114			-1.679
205101.000			-15.114			-1.679
205201.000			-15.113			-1.679
205302.000			-15.113			-1.679
205400.000			-15.113			-1.679
205501.000			-15.113			-1.679
205600.000			-15.113			-1.679
205700.000			-15.113			-1.679
205801.000			-15.111			-1.679
205900.000			-15.112			-1.679
206001.000			-15.112			-1.679
206102.000			-15.111			-1.679
206201.000			-15.111			-1.679
206300.000			-15.111			-1.679
206401.000			-15.112			-1.679
206500.000			-15.110			-1.679
206600.000			-15.110			-1.679
206701.000			-15.109			-1.679
206800.000			-15.110			-1.679
206901.000			-15.110			-1.679
207002.000			-15.110			-1.679
207101.000			-15.110			-1.679
207200.000			-15.110			-1.679
207301.000			-15.110			-1.679
207400.000			-15.109			-1.679
207500.000			-15.109			-1.679
207601.000			-15.108			-1.679
207700.000			-15.109			-1.679
207801.000			-15.108			-1.679
207902.000			-15.107			-1.679
208000.000			-15.106			-1.678
208100.000			-15.108			-1.679
208201.000			-15.107			-1.679
208300.000			-15.107			-1.679
208400.000			-15.107			-1.679
208501.000			-15.107			-1.679
208600.000			-15.107			-1.679
208702.000			-15.106			-1.678
208801.000			-15.105			-1.678
208900.000			-15.105			-1.678
209001.000			-15.105			-1.678
209100.000			-15.105			-1.678
209200.000			-15.105			-1.678
209301.000			-15.105			-1.678
209400.000			-15.104			-1.678
209500.000			-15.104			-1.678
209602.000			-15.104			-1.678
209701.000			-15.104			-1.678
209800.000			-15.104			-1.678
209901.000			-15.103			-1.678
210000.000			-15.103			-1.678
210100.000			-15.104			-1.678
210201.000			-15.104			-1.678
210300.000			-15.103			-1.678
210400.000			-15.101			-1.678
210502.000			-15.102			-1.678
210601.000			-15.103			-1.678
210700.000			-15.102			-1.678
210801.000			-15.101			-1.678
210900.000			-15.102			-1.678
211000.000			-15.102			-1.678
211101.000			-15.102			-1.678
211200.000			-15.102			-1.678
211301.000			-15.101			-1.678
211402.000			-15.100			-1.678
211501.000			-15.100			-1.678
211600.000			-15.101			-1.678
211701.000			-15.100			-1.678
211800.000			-15.100			-1.678
211901.000			-15.099			-1.678
212000.000			-15.100			-1.678
212100.000			-15.101			-1.678
212202.000			-15.101			-1.678
212301.000			-15.101			-1.678
212400.000			-15.099			-1.678
212501.000			-15.099			-1.678
212600.000			-15.098			-1.678
212700.000			-15.099			-1.678
212801.000			-15.099			-1.678
212900.000			-15.098			-1.678
213000.000			-15.098			-1.678
213102.000			-15.097			-1.677
213201.000			-15.097			-1.677
213301.000			-15.097			-1.677
213401.000			-15.098			-1.678
213500.000			-15.097			-1.677
213600.000			-15.096			-1.677
213701.000			-15.096			-1.677
213800.000			-15.096			-1.677
213900.000			-15.096			-1.677
214002.000			-15.095			-1.677
214101.000			-15.095			-1.677
214201.000			-15.096			-1.677
214301.000			-15.096			-1.677
214400.000			-15.095			-1.677
214500.000			-15.095			-1.677
214601.000			-15.094			-1.677
214700.000			-15.095			-1.677
214800.000			-15.095			-1.677
214901.000			-15.094			-1.677
215001.000			-15.093			-1.677
215102.000			-15.094			-1.677
215200.000			-15.094			-1.677
215300.000			-15.094			-1.677
215401.000			-15.092			-1.677
215500.000			-15.093			-1.677
215600.000			-15.093			-1.677
215701.000			-15.094			-1.677
215800.000			-15.093			-1.677
215901.000			-15.093			-1.677
216002.000			-15.092			-1.677
216100.000			-15.093			-1.677
216200.000			-15.092			-1.677
216301.000			-15.091			-1.677
216400.000			-15.092			-1.677
216500.000			-15.092			-1.677
216601.000			-15.091			-1.677
216700.000			-15.091			-1.677
216801.000			-15.091			-1.677
216902.000			-15.091			-1.677
217001.000			-15.090			-1.677
217100.000			-15.091			-1.677
217201.000			-15.090			-1.677
217300.000			-15.089			-1.677
217400.000			-15.089			-1.677
217501.000			-15.090			-1.677
217600.000			-15.089			-1.677
217700.000			-15.089			-1.677
217802.000			-15.088			-1.676
217901.000			-15.088			-1.676
218000.000			-15.089			-1.677
218101.000			-15.088			-1.676
218200.000			-15.087			-1.676
218301.000			-15.088			-1.676
218400.000			-15.088			-1.676
218500.000			-15.087			-1.676
218601.000			-15.087			-1.676
218701.000			-15.087			-1.676
218801.000			-15.087			-1.676
218902.000			-15.085			-1.676
219000.000			-15.086			-1.676
219100.000			-15.086			-1.676
219201.000			-15.086			-1.676
219300.000			-15.085			-1.676
219400.000			-15.085			-1.676
219501.000			-15.084			-1.676
219600.000			-15.085			-1.676
219701.000			-15.085			-1.676
219802.000			-15.085			-1.676
219900.000			-15.085			-1.676
220000.000			-15.085			-1.676
220101.000			-15.084			-1.676
220200.000			-15.084			-1.676
220300.000			-15.084			-1.676
220401.000			-15.084			-1.676
220500.000			-15.084			-1.676
220601.000			-15.084			-1.676
220702.000			-15.083			-1.676
220800.000			-15.082			-1.676
220900.000			-15.081			-1.676
221001.000			-15.082			-1.676
221100.000			-15.083			-1.676
221200.000			-15.083			-1.676
221301.000			-15.082			-1.676
221400.000			-15.082			-1.676
221502.000			-15.081			-1.676
221601.000			-15.082			-1.676
221700.000			-15.081			-1.676
221801.000			-15.081			-1.676
221900.000			-15.081			-1.676
222000.000			-15.080			-1.676
222101.000			-15.080			-1.676
222200.000			-15.081			-1.676
222300.000			-15.081			-1.676
222402.000			-15.080			-1.676
222501.000			-15.080			-1.676
222600.000			-15.080			-1.676
222701.000			-15.080			-1.676
222800.000			-15.080			-1.676
222900.000			-15.079			-1.675
223001.000			-15.079			-1.675
223100.000			-15.079			-1.675
223200.000			-15.079			-1.675
223302.000			-15.079			-1.675
223401.000			-15.078			-1.675
223501.000			-15.078			-1.675
223601.000			-15.077			-1.675
223700.000			-15.078			-1.675
223800.000			-15.077			-1.675
223901.000			-15.077			-1.675
224000.000			-15.077			-1.675
224100.000			-15.076			-1.675
224201.000			-15.076			-1.675
224301.000			-15.076			-1.675
224401.000			-15.077			-1.675
224501.000			-15.078			-1.675
224600.000			-15.077			-1.675
224701.000			-15.076			-1.675
224800.000			-15.076			-1.675
224900.000			-15.075			-1.675
225001.000			-15.076			-1.675
225100.000			-15.076			-1.675
225201.000			-15.076			-1.675
225302.000			-15.075			-1.675
225400.000			-15.076			-1.675
225500.000			-15.075			-1.675
225601.000			-15.075			-1.675
225700.000			-15.075			-1.675
225800.000			-15.074			-1.675
225901.000			-15.073			-1.675
226000.000			-15.074			-1.675
226101.000			-15.074			-1.675
226202.000			-15.073			-1.675
226300.000			-15.072			-1.675
226400.000			-15.072			-1.675
226501.000			-15.073			-1.675
226600.000			-15.073			-1.675
226700.000			-15.072			-1.675
226801.000			-15.072			-1.675
226900.000			-15.072			-1.675
227001.000			-15.072			-1.675
227102.000			-15.072			-1.675
227201.000			-15.072			-1.675
227300.000			-15.071			-1.675
227401.000			-15.071			-1.675
227500.000			-15.072			-1.675
227600.000			-15.072			-1.675
227701.000			-15.070			-1.674
227800.000			-15.070			-1.674
227902.000			-15.070			-1.674
228001.000			-15.070			-1.674
228101.000			-15.071			-1.675
228201.000			-15.070			-1.674
228300.000			-15.069			-1.674
228400.000			-15.069			-1.674
228501.000			-15.069			-1.674
228600.000			-15.068			-1.674
228700.000			-15.068			-1.674
228801.000			-15.069			-1.674
228901.000			-15.069			-1.674
229001.000			-15.069			-1.674
229101.000			-15.069			-1.674
229200.000			-15.068			-1.674
229300.000			-15.068			-1.674
229401.000			-15.067			-1.674
229500.000			-15.067			-1.674
229600.000			-15.067			-1.674
229701.000			-15.067			-1.674
229801.000			-15.067			-1.674
229901.000			-15.067			-1.674
230002.000			-15.066			-1.674
230100.000			-15.065			-1.674
230200.000			-15.066			-1.674
230301.000			-15.066			-1.674
230400.000			-15.066			-1.674
230500.000			-15.064			-1.674
230601.000			-15.065			-1.674
230700.000			-15.066			-1.674
230801.000			-15.065			-1.674
230902.000			-15.065			-1.674
231000.000			-15.063			-1.674
231101.000			-15.063			-1.674
231200.000			-15.064			-1.674
231300.000			-15.062			-1.674
231401.000			-15.063			-1.674
231500.000			-15.063			-1.674
231600.000			-15.063			-1.674
231702.000			-15.063			-1.674
231801.000			-15.064			-1.674
231900.000			-15.063			-1.674
232001.000			-15.064			-1.674
232100.000			-15.062			-1.674
232200.000			-15.063			-1.674
232301.000			-15.062			-1.674
232400.000			-15.061			-1.673
232500.000			-15.061			-1.673
232602.000			-15.061			-1.673
232701.000			-15.062			-1.674
232800.000			-15.061			-1.673
232901.000			-15.061			-1.673
233000.000			-15.061			-1.673
233100.000			-15.061			-1.673
233201.000			-15.060			-1.673
233300.000			-15.060			-1.673
233400.000			-15.060			-1.673
233502.000			-15.060			-1.673
233601.000			-15.059			-1.673
233700.000			-15.060			-1.673
233801.000			-15.060			-1.673
233900.000			-15.060			-1.673
234000.000			-15.059			-1.673
234101.000			-15.060			-1.673
234200.000			-15.058			-1.673
234301.000			-15.058			-1.673
234401.000			-15.058			-1.673
234501.000			-15.058			-1.673
234601.000			-15.057			-1.673
234700.000			-15.058			-1.673
234800.000			-15.059			-1.673
234901.000			-15.058			-1.673
235000.000			-15.058			-1.673
235100.000			-15.057			-1.673
235201.000			-15.057			-1.673
235301.000			-15.057			-1.673
235401.000			-15.057			-1.673
235502.000			-15.056			-1.673
235600.000			-15.056			-1.673
235700.000			-15.056			-1.673
235801.000			-15.056			-1.673
235900.000			-15.056			-1.673
236000.000			-15.055			-1.673
236101.000			-15.055			-1.673
236201.000			-15.055			-1.673
236301.000			-15.054			-1.673
236402.000			-15.055			-1.673
236500.000			-15.055			-1.673
236600.000			-15.055			-1.673
236701.000			-15.053			-1.673
236800.000			-15.053			-1.673
236900.000			-15.053			-1.673
237001.000			-15.054			-1.673
237100.000			-15.054			-1.673
237201.000			-15.054			-1.673
237302.000			-15.053			-1.673
237400.000			-15.052			-1.672
237501.000			-15.053			-1.673
237600.000			-15.053			-1.673
237700.000			-15.053			-1.673
237801.000			-15.051			-1.672
237900.000			-15.053			-1.673
238000.000			-15.052			-1.672
238102.000			-15.052			-1.672
238201.000			-15.051			-1.672
238300.000			-15.051			-1.672
238401.000			-15.051			-1.672
238500.000			-15.051			-1.672
238600.000			-15.050			-1.672
238701.000			-15.051			-1.672
238800.000			-15.050			-1.672
238900.000			-15.050			-1.672
239002.000			-15.049			-1.672
239101.000			-15.050			-1.672
239201.000			-15.050			-1.672
239301.000			-15.049			-1.672
239400.000			-15.050			-1.672
239500.000			-15.049			-1.672
239601.000			-15.048			-1.672
239700.000			-15.049			-1.672
239800.000			-15.049			-1.672
239901.000			-15.048			-1.672
240001.000			-15.047			-1.672
240101.000			-15.049			-1.672
240201.000			-15.048			-1.672
240300.000			-15.048			-1.672
240400.000			-15.047			-1.672
240501.000			-15.047			-1.672
240600.000			-15.047			-1.672
240701.000			-15.046			-1.672
240800.000			-15.046			-1.672
240901.000			-15.047			-1.672
241002.000			-15.047			-1.672
241100.000			-15.047			-1.672
241200.000			-15.047			-1.672
241301.000			-15.046			-1.672
241400.000			-15.046			-1.672
241500.000			-15.045			-1.672
241601.000			-15.044			-1.672
241700.000			-15.044			-1.672
241801.000			-15.044			-1.672
241902.000			-15.045			-1.672
242001.000			-15.045			-1.672
242100.000			-15.045			-1.672
242201.000			-15.045			-1.672
242300.000			-15.044			-1.672
242400.000			-15.045			-1.672
242501.000			-15.045			-1.672
242600.000			-15.043			-1.671
242701.000			-15.044			-1.672
242802.000			-15.044			-1.672
242901.000			-15.044			-1.672
243000.000			-15.042			-1.671
243101.000			-15.042			-1.671
243200.000			-15.042			-1.671
243300.000			-15.042			-1.671
243401.000			-15.042			-1.671
243500.000			-15.042			-1.671
243601.000			-15.042			-1.671
243702.000			-15.042			-1.671
243801.000			-15.042			-1.671
243901.000			-15.042			-1.671
244000.000			-15.042			-1.671
244100.000			-15.042			-1.671
244201.000			-15.041			-1.671
244300.000			-15.042			-1.671
244400.000			-15.041			-1.671
244502.000			-15.041			-1.671
244601.000			-15.039			-1.671
244700.000			-15.040			-1.671
244801.000			-15.039			-1.671
244900.000			-15.040			-1.671
245000.000			-15.039			-1.671
245101.000			-15.039			-1.671
245200.000			-15.039			-1.671
245300.000			-15.038			-1.671
245402.000			-15.039			-1.671
245501.000			-15.039			-1.671
245601.000			-15.039			-1.671
245701.000			-15.039			-1.671
245800.000			-15.039			-1.671
245900.000			-15.039			-1.671
246001.000			-15.038			-1.671
246100.000			-15.037			-1.671
246200.000			-15.037			-1.671
246301.000			-15.037			-1.671
246401.000			-15.037			-1.671
246501.000			-15.036			-1.671
246601.000			-15.036			-1.671
246700.000			-15.037			-1.671
246800.000			-15.037			-1.671
246901.000			-15.037			-1.671
247000.000			-15.037			-1.671
247101.000			-15.036			-1.671
247200.000			-15.037			-1.671
247300.000			-15.037			-1.671
247402.000			-15.035			-1.671
247501.000			-15.035			-1.671
247600.000			-15.034			-1.670
247701.000			-15.034			-1.670
247800.000			-15.036			-1.671
247900.000			-15.036			-1.671
248001.000			-15.035			-1.671
248100.000			-15.035			-1.671
248200.000			-15.034			-1.670
248302.000			-15.034			-1.670
248401.000			-15.035			-1.671
248500.000			-15.034			-1.670
248601.000			-15.033			-1.670
248700.000			-15.033			-1.670
248800.000			-15.033			-1.670
248901.000			-15.033			-1.670
249000.000			-15.033			-1.670
249100.000			-15.033			-1.670
249202.000			-15.033			-1.670
249301.000			-15.033			-1.670
249401.000			-15.033			-1.670
249501.000			-15.032			-1.670
249600.000			-15.031			-1.670
249700.000			-15.032			-1.670
249801.000			-15.032			-1.670
249900.000			-15.032			-1.670
250000.000			-15.032			-1.670
250102.000			-15.031			-1.670
250201.000			-15.032			-1.670
250302.000			-15.031			-1.670
250400.000			-15.032			-1.670
250500.000			-15.031			-1.670
250601.000			-15.031			-1.670
250700.000			-15.030			-1.670
250800.000			-15.030			-1.670
250901.000			-15.030			-1.670
251001.000			-15.030			-1.670
251101.000			-15.030			-1.670
251202.000			-15.030			-1.670
251300.000			-15.029			-1.670
251400.000			-15.028			-1.670
251501.000			-15.029			-1.670
251600.000			-15.029			-1.670
251700.000			-15.027			-1.670
251801.000			-15.028			-1.670
251901.000			-15.028			-1.670
252001.000			-15.029			-1.670
252102.000			-15.028			-1.670
252200.000			-15.028			-1.670
252300.000			-15.027			-1.670
252401.000			-15.027			-1.670
252500.000			-15.027			-1.670
252600.000			-15.026			-1.670
252701.000			-15.026			-1.670
252800.000			-15.026			-1.670
252901.000			-15.026			-1.670
253002.000			-15.027			-1.670
253100.000			-15.027			-1.670
253200.000			-15.025			-1.669
253301.000			-15.026			-1.670
253400.000			-15.025			-1.669
253501.000			-15.025			-1.669
253600.000			-15.026			-1.670
253700.000			-15.025			-1.669
253802.000			-15.024			-1.669
253901.000			-15.025			-1.669
254000.000			-15.025			-1.669
254101.000			-15.024			-1.669
254200.000			-15.024			-1.669
254300.000			-15.024			-1.669
254401.000			-15.024			-1.669
254500.000			-15.024			-1.669
254600.000			-15.024			-1.669
254702.000			-15.023			-1.669
254801.000			-15.023			-1.669
254900.000			-15.023			-1.669
255001.000			-15.023			-1.669
255100.000			-15.023			-1.669
255200.000			-15.023			-1.669
255301.000			-15.022			-1.669
255400.000			-15.023			-1.669
255500.000			-15.023			-1.669
255602.000			-15.022			-1.669
255701.000			-15.022			-1.669
255800.000			-15.021			-1.669
255901.000			-15.021			-1.669
256000.000			-15.021			-1.669
256100.000			-15.021			-1.669
256201.000			-15.020			-1.669
256300.000			-15.021			-1.669
256400.000			-15.022			-1.669
256502.000			-15.021			-1.669
256601.000			-15.019			-1.669
256702.000			-15.020			-1.669
256800.000			-15.020			-1.669
256900.000			-15.019			-1.669
257001.000			-15.020			-1.669
257100.000			-15.019			-1.669
257200.000			-15.018			-1.669
257301.000			-15.019			-1.669
257401.000			-15.019			-1.669
257501.000			-15.019			-1.669
257602.000			-15.018			-1.669
257700.000			-15.018			-1.669
257800.000			-15.018			-1.669
257901.000			-15.018			-1.669
258000.000			-15.018			-1.669
258100.000			-15.018			-1.669
258201.000			-15.017			-1.669
258300.000			-15.018			-1.669
258401.000			-15.018			-1.669
258502.000			-15.018			-1.669
258600.000			-15.018			-1.669
258700.000			-15.017			-1.669
258801.000			-15.016			-1.668
258900.000			-15.016			-1.668
259000.000			-15.016			-1.668
259101.000			-15.016			-1.668
259200.000			-15.016			-1.668
259301.000			-15.017			-1.669
259402.000			-15.017			-1.669
259501.000			-15.016			-1.668
259600.000			-15.016			-1.668
259701.000			-15.016			-1.668
259800.000			-15.015			-1.668
259901.000			-15.015			-1.668
260000.000			-15.016			-1.668
260100.000			-15.014			-1.668
260201.000			-15.014			-1.668
260301.000			-15.014			-1.668
260401.000			-15.014			-1.668
260501.000			-15.013			-1.668
260600.000			-15.013			-1.668
260700.000			-15.012			-1.668
260801.000			-15.012			-1.668
260900.000			-15.012			-1.668
261000.000			-15.013			-1.668
261101.000			-15.013			-1.668
261201.000			-15.011			-1.668
261301.000			-15.013			-1.668
261401.000			-15.012			-1.668
261500.000			-15.011			-1.668
261600.000			-15.011			-1.668
261701.000			-15.011			-1.668
261800.000			-15.011			-1.668
261900.000			-15.011			-1.668
262002.000			-15.010			-1.668
262101.000			-15.011			-1.668
262201.000			-15.010			-1.668
262301.000			-15.010			-1.668
262400.000			-15.010			-1.668
262500.000			-15.010			-1.668
262601.000			-15.010			-1.668
262700.000			-15.011			-1.668
262800.000			-15.011			-1.668
262902.000			-15.010			-1.668
263001.000			-15.011			-1.668
263102.000			-15.010			-1.668
263200.000			-15.009			-1.668
263300.000			-15.009			-1.668
263401.000			-15.009			-1.668
263500.000			-15.009			-1.668
263600.000			-15.009			-1.668
263701.000			-15.008			-1.668
263801.000			-15.008			-1.668
263901.000			-15.008			-1.668
264002.000			-15.008			-1.668
264100.000			-15.010			-1.668
264200.000			-15.009			-1.668
264301.000			-15.008			-1.668
264400.000			-15.009			-1.668
264500.000			-15.008			-1.668
264601.000			-15.008			-1.668
264700.000			-15.008			-1.668
264801.000			-15.008			-1.668
264902.000			-15.007			-1.667
265000.000			-15.007			-1.667
265100.000			-15.007			-1.667
265201.000			-15.007			-1.667
265300.000			-15.008			-1.668
265400.000			-15.007			-1.667
265501.000			-15.007			-1.667
265600.000			-15.006			-1.667
265701.000			-15.006			-1.667
265802.000			-15.006			-1.667
265900.000			-15.005			-1.667
266000.000			-15.005			-1.667
266101.000			-15.006			-1.667
266200.000			-15.006			-1.667
266301.000			-15.005			-1.667
266400.000			-15.005			-1.667
266500.000			-15.005			-1.667
266602.000			-15.005			-1.667
266701.000			-15.004			-1.667
266801.000			-15.003			-1.667
266901.000			-15.004			-1.667
267000.000			-15.005			-1.667
267100.000			-15.004			-1.667
267201.000			-15.004			-1.667
267300.000			-15.004			-1.667
267400.000			-15.004			-1.667
267502.000			-15.003			-1.667
267601.000			-15.003			-1.667
267701.000			-15.003			-1.667
267801.000			-15.002			-1.667
267900.000			-15.003			-1.667
268000.000			-15.003			-1.667
268101.000			-15.002			-1.667
268200.000			-15.002			-1.667
268300.000			-15.001			-1.667
268402.000			-15.001			-1.667
268501.000			-15.001			-1.667
268601.000			-15.001			-1.667
268701.000			-15.001			-1.667
268800.000			-15.001			-1.667
268900.000			-15.001			-1.667
269001.000			-15.000			-1.667
269100.000			-15.001			-1.667
269200.000			-15.000			-1.667
269301.000			-15.000			-1.667
269401.000			-15.000			-1.667
269502.000			-15.001			-1.667
269600.000			-15.000			-1.667
269700.000			-14.999			-1.667
269801.000			-15.000			-1.667
269900.000			-14.999			-1.667
270000.000			-14.998			-1.666
270101.000			-14.998			-1.666
270200.000			-14.998			-1.666
270301.000			-14.999			-1.667
270402.000			-14.999			-1.667
270501.000			-14.999			-1.667
270600.000			-14.998			-1.666
270701.000			-14.997			-1.666
270800.000			-14.997			-1.666
270900.000			-14.997			-1.666
271001.000			-14.997			-1.666
271100.000			-14.997			-1.666
271200.000			-14.998			-1.666
271302.000			-14.997			-1.666
271401.000			-14.997			-1.666
271500.000			-14.996			-1.666
271601.000			-14.996			-1.666
271700.000			-14.997			-1.666
271800.000			-14.997			-1.666
271901.000			-14.996			-1.666
272000.000			-14.995			-1.666
272100.000			-14.997			-1.666
272201.000			-14.996			-1.666
272301.000			-14.996			-1.666
272401.000			-14.996			-1.666
272501.000			-14.995			-1.666
272600.000			-14.995			-1.666
272701.000			-14.994			-1.666
272800.000			-14.994			-1.666
272900.000			-14.995			-1.666
273001.000			-14.995			-1.666
273100.000			-14.994			-1.666
273200.000			-14.994			-1.666
273302.000			-14.994			-1.666
273401.000			-14.993			-1.666
273500.000			-14.993			-1.666
273601.000			-14.993			-1.666
273700.000			-14.993			-1.666
273800.000			-14.993			-1.666
273901.000			-14.993			-1.666
274000.000			-14.993			-1.666
274100.000			-14.992			-1.666
274202.000			-14.992			-1.666
274301.000			-14.992			-1.666
274401.000			-14.993			-1.666
274501.000			-14.992			-1.666
274600.000			-14.992			-1.666
274700.000			-14.992			-1.666
274801.000			-14.991			-1.666
274900.000			-14.991			-1.666
275000.000			-14.991			-1.666
275101.000			-14.991			-1.666
275201.000			-14.990			-1.666
275301.000			-14.989			-1.665
275402.000			-14.991			-1.666
275500.000			-14.991			-1.666
275600.000			-14.991			-1.666
275701.000			-14.991			-1.666
275800.000			-14.990			-1.666
275901.000			-14.990			-1.666
276000.000			-14.990			-1.666
276100.000			-14.990			-1.666
276202.000			-14.988			-1.665
276301.000			-14.988			-1.665
276401.000			-14.988			-1.665
276501.000			-14.988			-1.665
276600.000			-14.988			-1.665
276700.000			-14.988			-1.665
276801.000			-14.989			-1.665
276900.000			-14.989			-1.665
277000.000			-14.988			-1.665
277101.000			-14.988			-1.665
277201.000			-14.987			-1.665
277301.000			-14.988			-1.665
277402.000			-14.988			-1.665
277500.000			-14.988			-1.665
277600.000			-14.988			-1.665
277701.000			-14.987			-1.665
277800.000			-14.987			-1.665
277900.000			-14.986			-1.665
278001.000			-14.986			-1.665
278100.000			-14.986			-1.665
278201.000			-14.987			-1.665
278302.000			-14.986			-1.665
278401.000			-14.986			-1.665
278500.000			-14.986			-1.665
278601.000			-14.985			-1.665
278700.000			-14.986			-1.665
278800.000			-14.985			-1.665
278901.000			-14.985			-1.665
279000.000			-14.985			-1.665
279101.000			-14.985			-1.665
279200.000			-14.985			-1.665
279301.000			-14.984			-1.665
279402.000			-14.985			-1.665
279501.000			-14.985			-1.665
279600.000			-14.985			-1.665
279701.000			-14.984			-1.665
279800.000			-14.985			-1.665
279900.000			-14.984			-1.665
280001.000			-14.984			-1.665
280100.000			-14.984			-1.665
280200.000			-14.984			-1.665
280302.000			-14.984			-1.665
280401.000			-14.984			-1.665
280500.000			-14.983			-1.665
280601.000			-14.984			-1.665
280700.000			-14.983			-1.665
280800.000			-14.982			-1.665
280901.000			-14.983			-1.665
281000.000			-14.983			-1.665
281100.000			-14.982			-1.665
281202.000			-14.982			-1.665
281301.000			-14.983			-1.665
281401.000			-14.982			-1.665
281501.000			-14.981			-1.665
281600.000			-14.980			-1.664
281700.000			-14.981			-1.665
281801.000			-14.980			-1.664
281900.000			-14.981			-1.665
282000.000			-14.980			-1.664
282101.000			-14.979			-1.664
282201.000			-14.980			-1.664
282302.000			-14.980			-1.664
282401.000			-14.979			-1.664
282500.000			-14.979			-1.664
282601.000			-14.979			-1.664
282700.000			-14.979			-1.664
282800.000			-14.980			-1.664
282901.000			-14.980			-1.664
283000.000			-14.980			-1.664
283100.000			-14.979			-1.664
283202.000			-14.978			-1.664
283301.000			-14.978			-1.664
283400.000			-14.978			-1.664
283501.000			-14.978			-1.664
283600.000			-14.978			-1.664
283700.000			-14.978			-1.664
283801.000			-14.978			-1.664
283900.000			-14.978			-1.664
284000.000			-14.978			-1.664
284101.000			-14.978			-1.664
284201.000			-14.977			-1.664
284301.000			-14.977			-1.664
284401.000			-14.977			-1.664
284500.000			-14.976			-1.664
284600.000			-14.976			-1.664
284701.000			-14.976			-1.664
284800.000			-14.975			-1.664
284900.000			-14.976			-1.664
285001.000			-14.976			-1.664
285100.000			-14.975			-1.664
285201.000			-14.975			-1.664
285302.000			-14.975			-1.664
285400.000			-14.975			-1.664
285501.000			-14.975			-1.664
285600.000			-14.975			-1.664
285700.000			-14.975			-1.664
285801.000			-14.975			-1.664
285900.000			-14.975			-1.664
286000.000			-14.974			-1.664
286101.000			-14.974			-1.664
286201.000			-14.974			-1.664
286301.000			-14.973			-1.664
286401.000			-14.973			-1.664
286500.000			-14.973			-1.664
286600.000			-14.974			-1.664
286701.000			-14.974			-1.664
286800.000			-14.973			-1.664
286900.000			-14.974			-1.664
287001.000			-14.973			-1.664
287101.000			-14.972			-1.664
287201.000			-14.972			-1.664
287302.000			-14.972			-1.664
287400.000			-14.973			-1.664
287500.000			-14.972			-1.664
287601.000			-14.972			-1.664
287700.000			-14.971			-1.663
287800.000			-14.972			-1.664
287901.000			-14.972			-1.664
288000.000			-14.971			-1.663
288101.000			-14.971			-1.663
288202.000			-14.971			-1.663
288301.000			-14.971			-1.663
288400.000			-14.971			-1.663
288501.000			-14.972			-1.664
288600.000			-14.971			-1.663
288701.000			-14.970			-1.663
288800.000			-14.970			-1.663
288900.000			-14.970			-1.663
289001.000			-14.969			-1.663
289101.000			-14.969			-1.663
289201.000			-14.969			-1.663
289302.000			-14.970			-1.663
289400.000			-14.970			-1.663
289500.000			-14.969			-1.663
289601.000			-14.969			-1.663
289700.000			-14.969			-1.663
289800.000			-14.969			-1.663
289901.000			-14.968			-1.663
290000.000			-14.969			-1.663
290100.000			-14.970			-1.663
290202.000			-14.970			-1.663
290301.000			-14.969			-1.663
290400.000			-14.969			-1.663
290501.000			-14.966			-1.663
290600.000			-14.966			-1.663
290700.000			-14.967			-1.663
290801.000			-14.966			-1.663
290900.000			-14.966			-1.663
291000.000			-14.967			-1.663
291101.000			-14.966			-1.663
291201.000			-14.966			-1.663
291301.000			-14.967			-1.663
291401.000			-14.967			-1.663
291500.000			-14.966			-1.663
291600.000			-14.965			-1.663
291701.000			-14.966			-1.663
291800.000			-14.966			-1.663
291901.000			-14.966			-1.663
292000.000			-14.966			-1.663
292101.000			-14.967			-1.663
292202.000			-14.966			-1.663
292301.000			-14.966			-1.663
292400.000			-14.965			-1.663
292501.000			-14.964			-1.663
292600.000			-14.964			-1.663
292700.000			-14.966			-1.663
292801.000			-14.965			-1.663
292900.000			-14.964			-1.663
293000.000			-14.964			-1.663
293102.000			-14.965			-1.663
293201.000			-14.964			-1.663
293301.000			-14.963			-1.663
293401.000			-14.962			-1.662
293500.000			-14.962			-1.662
293600.000			-14.963			-1.663
293701.000			-14.964			-1.663
293800.000			-14.963			-1.663
293900.000			-14.962			-1.662
294001.000			-14.962			-1.662
294101.000			-14.961			-1.662
294201.000			-14.961			-1.662
294301.000			-14.962			-1.662
294400.000			-14.961			-1.662
294500.000			-14.961			-1.662
294601.000			-14.962			-1.662
294700.000			-14.962			-1.662
294800.000			-14.961			-1.662
294901.000			-14.960			-1.662
295001.000			-14.961			-1.662
295102.000			-14.961			-1.662
295201.000			-14.960			-1.662
295300.000			-14.960			-1.662
295401.000			-14.961			-1.662
295500.000			-14.960			-1.662
295600.000			-14.961			-1.662
295701.000			-14.961			-1.662
295800.000			-14.959			-1.662
295900.000			-14.960			-1.662
296002.000			-14.960			-1.662
296101.000			-14.959			-1.662
296201.000			-14.959			-1.662
296301.000			-14.960			-1.662
296400.000			-14.959			-1.662
296500.000			-14.959			-1.662
296601.000			-14.960			-1.662
296700.000			-14.959			-1.662
296800.000			-14.959			-1.662
296901.000			-14.958			-1.662
297001.000			-14.958			-1.662
297101.000			-14.957			-1.662
297202.000			-14.958			-1.662
297300.000			-14.957			-1.662
297400.000			-14.957			-1.662
297501.000			-14.957			-1.662
297600.000			-14.957			-1.662
297700.000			-14.957			-1.662
297801.000			-14.958			-1.662
297900.000			-14.957			-1.662
298000.000			-14.958			-1.662
298102.000			-14.958			-1.662
298201.000			-14.957			-1.662
298301.000			-14.956			-1.662
298400.000			-14.956			-1.662
298500.000			-14.956			-1.662
298601.000			-14.955			-1.662
298700.000			-14.955			-1.662
298800.000			-14.955			-1.662
298901.000			-14.955			-1.662
299000.000			-14.956			-1.662
299101.000			-14.955			-1.662
299202.000			-14.955			-1.662
299301.000			-14.954			-1.662
299400.000			-14.954			-1.662
299501.000			-14.954			-1.662
299600.000			-14.955			-1.662
299700.000			-14.955			-1.662
299801.000			-14.954			-1.662
299900.000			-14.955			-1.662
