# Acquired on 09/01/2024 12:03:49 
# SPIDER: Creep_-6mm_0771453C
# CREEP MEASUREMENT

# time [ms]		force [N]		stiffness [N/mm]
1.000			19.686			-3.281
100.000			21.442			-3.574
201.000			22.442			-3.740
300.000			22.352			-3.725
400.000			22.280			-3.713
501.000			22.224			-3.704
601.000			22.179			-3.697
701.000			22.141			-3.690
801.000			22.108			-3.685
900.000			22.049			-3.675
1000.000			22.024			-3.671
1100.000			22.001			-3.667
1200.000			21.978			-3.663
1302.000			21.959			-3.660
1401.000			21.941			-3.657
1500.000			21.923			-3.654
1601.000			21.890			-3.648
1700.000			21.875			-3.646
1800.000			21.861			-3.644
1901.000			21.848			-3.641
2000.000			21.834			-3.639
2101.000			21.822			-3.637
2202.000			21.811			-3.635
2300.000			21.799			-3.633
2400.000			21.777			-3.629
2501.000			21.767			-3.628
2600.000			21.757			-3.626
2700.000			21.747			-3.624
2802.000			21.738			-3.623
2901.000			21.729			-3.621
3000.000			21.720			-3.620
3101.000			21.702			-3.617
3200.000			21.695			-3.616
3300.000			21.687			-3.614
3401.000			21.679			-3.613
3500.000			21.671			-3.612
3601.000			21.664			-3.611
3702.000			21.657			-3.610
3800.000			21.643			-3.607
3900.000			21.635			-3.606
4001.000			21.630			-3.605
4100.000			21.624			-3.604
4200.000			21.618			-3.603
4302.000			21.611			-3.602
4401.000			21.606			-3.601
4501.000			21.594			-3.599
4600.000			21.589			-3.598
4700.000			21.583			-3.597
4801.000			21.577			-3.596
4900.000			21.572			-3.595
5000.000			21.568			-3.595
5102.000			21.561			-3.594
5201.000			21.555			-3.592
5300.000			21.546			-3.591
5401.000			21.542			-3.590
5500.000			21.537			-3.589
5600.000			21.531			-3.589
5701.000			21.527			-3.588
5800.000			21.524			-3.587
5901.000			21.519			-3.587
6002.000			21.510			-3.585
6100.000			21.505			-3.584
6200.000			21.502			-3.584
6301.000			21.497			-3.583
6400.000			21.493			-3.582
6500.000			21.489			-3.581
6602.000			21.485			-3.581
6701.000			21.477			-3.580
6800.000			21.474			-3.579
6901.000			21.470			-3.578
7000.000			21.466			-3.578
7100.000			21.462			-3.577
7201.000			21.458			-3.576
7300.000			21.455			-3.576
7402.000			21.448			-3.575
7501.000			21.444			-3.574
7600.000			21.441			-3.574
7701.000			21.438			-3.573
7800.000			21.435			-3.572
7900.000			21.431			-3.572
8001.000			21.428			-3.571
8101.000			21.422			-3.570
8201.000			21.418			-3.570
8301.000			21.416			-3.569
8400.000			21.413			-3.569
8500.000			21.409			-3.568
8601.000			21.405			-3.568
8700.000			21.402			-3.567
8800.000			21.400			-3.567
8902.000			21.394			-3.566
9001.000			21.391			-3.565
9100.000			21.387			-3.564
9201.000			21.385			-3.564
9300.000			21.382			-3.564
9400.000			21.379			-3.563
9501.000			21.377			-3.563
9601.000			21.372			-3.562
9701.000			21.367			-3.561
9801.000			21.365			-3.561
9900.000			21.363			-3.561
10000.000			21.361			-3.560
10101.000			21.358			-3.560
10200.000			21.356			-3.559
10300.000			21.349			-3.558
10402.000			21.348			-3.558
10501.000			21.346			-3.558
10600.000			21.344			-3.557
10700.000			21.340			-3.557
10800.000			21.337			-3.556
10901.000			21.335			-3.556
11000.000			21.329			-3.555
11100.000			21.327			-3.554
11202.000			21.325			-3.554
11301.000			21.323			-3.554
11400.000			21.321			-3.553
11501.000			21.318			-3.553
11600.000			21.316			-3.553
11700.000			21.314			-3.552
11801.000			21.309			-3.552
11901.000			21.306			-3.551
12001.000			21.304			-3.551
12101.000			21.302			-3.550
12200.000			21.299			-3.550
12300.000			21.298			-3.550
12401.000			21.296			-3.549
12500.000			21.291			-3.549
12600.000			21.290			-3.548
12702.000			21.287			-3.548
12801.000			21.284			-3.547
12900.000			21.282			-3.547
13001.000			21.281			-3.547
13100.000			21.279			-3.546
13200.000			21.275			-3.546
13301.000			21.274			-3.546
13400.000			21.271			-3.545
13501.000			21.269			-3.545
13602.000			21.267			-3.545
13700.000			21.266			-3.544
13800.000			21.263			-3.544
13900.000			21.258			-3.543
14000.000			21.256			-3.543
14101.000			21.255			-3.543
14201.000			21.254			-3.542
14301.000			21.251			-3.542
14401.000			21.250			-3.542
14500.000			21.248			-3.541
14600.000			21.244			-3.541
14701.000			21.242			-3.540
14800.000			21.240			-3.540
14900.000			21.238			-3.540
15002.000			21.237			-3.539
15101.000			21.234			-3.539
15200.000			21.233			-3.539
15301.000			21.229			-3.538
15400.000			21.228			-3.538
15500.000			21.227			-3.538
15601.000			21.224			-3.537
15700.000			21.223			-3.537
15801.000			21.222			-3.537
15902.000			21.220			-3.537
16000.000			21.218			-3.536
16100.000			21.214			-3.536
16201.000			21.211			-3.535
16300.000			21.211			-3.535
16400.000			21.210			-3.535
16501.000			21.208			-3.535
16601.000			21.206			-3.534
16701.000			21.204			-3.534
16801.000			21.200			-3.533
16900.000			21.199			-3.533
17000.000			21.198			-3.533
17100.000			21.197			-3.533
17200.000			21.195			-3.533
17302.000			21.194			-3.532
17401.000			21.192			-3.532
17501.000			21.190			-3.532
17601.000			21.187			-3.531
17700.000			21.184			-3.531
17800.000			21.184			-3.531
17901.000			21.182			-3.530
18000.000			21.182			-3.530
18101.000			21.181			-3.530
18202.000			21.176			-3.529
18300.000			21.174			-3.529
18400.000			21.173			-3.529
18501.000			21.173			-3.529
18600.000			21.171			-3.529
18700.000			21.168			-3.528
18801.000			21.168			-3.528
18901.000			21.167			-3.528
19001.000			21.163			-3.527
19101.000			21.162			-3.527
19200.000			21.161			-3.527
19300.000			21.160			-3.527
19401.000			21.159			-3.526
19500.000			21.157			-3.526
19600.000			21.156			-3.526
19702.000			21.153			-3.525
19801.000			21.151			-3.525
19900.000			21.150			-3.525
20001.000			21.148			-3.525
20100.000			21.147			-3.525
20200.000			21.146			-3.524
20300.000			21.145			-3.524
20400.000			21.143			-3.524
20502.000			21.141			-3.523
20601.000			21.140			-3.523
20700.000			21.138			-3.523
20801.000			21.137			-3.523
20900.000			21.136			-3.523
21000.000			21.134			-3.522
21101.000			21.130			-3.522
21201.000			21.130			-3.522
21301.000			21.130			-3.522
21401.000			21.129			-3.521
21500.000			21.127			-3.521
21600.000			21.126			-3.521
21701.000			21.124			-3.521
21800.000			21.122			-3.520
21900.000			21.120			-3.520
22002.000			21.119			-3.520
22101.000			21.119			-3.520
22200.000			21.118			-3.520
22301.000			21.116			-3.519
22400.000			21.116			-3.519
22500.000			21.115			-3.519
22601.000			21.112			-3.519
22701.000			21.110			-3.518
22801.000			21.109			-3.518
22901.000			21.107			-3.518
23000.000			21.106			-3.518
23100.000			21.105			-3.517
23201.000			21.104			-3.517
23300.000			21.103			-3.517
23400.000			21.101			-3.517
23502.000			21.099			-3.517
23601.000			21.098			-3.516
23701.000			21.097			-3.516
23800.000			21.096			-3.516
23900.000			21.095			-3.516
24001.000			21.093			-3.516
24100.000			21.092			-3.515
24200.000			21.090			-3.515
24302.000			21.090			-3.515
24401.000			21.088			-3.515
24500.000			21.088			-3.515
24601.000			21.086			-3.514
24700.000			21.083			-3.514
24800.000			21.083			-3.514
24901.000			21.083			-3.514
25001.000			21.081			-3.514
25101.000			21.080			-3.513
25201.000			21.079			-3.513
25300.000			21.077			-3.513
25400.000			21.076			-3.513
25501.000			21.074			-3.512
25600.000			21.073			-3.512
25700.000			21.072			-3.512
25802.000			21.071			-3.512
25901.000			21.070			-3.512
26000.000			21.068			-3.511
26101.000			21.068			-3.511
26200.000			21.067			-3.511
26300.000			21.066			-3.511
26401.000			21.066			-3.511
26500.000			21.064			-3.511
26602.000			21.063			-3.510
26701.000			21.063			-3.510
26800.000			21.062			-3.510
26901.000			21.059			-3.510
27000.000			21.059			-3.510
27100.000			21.057			-3.510
27201.000			21.056			-3.509
27300.000			21.056			-3.509
27401.000			21.054			-3.509
27502.000			21.053			-3.509
27600.000			21.052			-3.509
27700.000			21.051			-3.509
27801.000			21.049			-3.508
27900.000			21.048			-3.508
28000.000			21.048			-3.508
28101.000			21.047			-3.508
28201.000			21.046			-3.508
28301.000			21.044			-3.507
28401.000			21.043			-3.507
28500.000			21.043			-3.507
28600.000			21.042			-3.507
28701.000			21.041			-3.507
28800.000			21.040			-3.507
28901.000			21.039			-3.507
29002.000			21.039			-3.507
29100.000			21.037			-3.506
29200.000			21.036			-3.506
29301.000			21.035			-3.506
29400.000			21.035			-3.506
29500.000			21.034			-3.506
29601.000			21.033			-3.505
29701.000			21.032			-3.505
29802.000			21.030			-3.505
29900.000			21.030			-3.505
30000.000			21.030			-3.505
30101.000			21.027			-3.505
30200.000			21.027			-3.504
30300.000			21.025			-3.504
30401.000			21.025			-3.504
30501.000			21.023			-3.504
30601.000			21.022			-3.504
30701.000			21.022			-3.504
30800.000			21.022			-3.504
30900.000			21.021			-3.503
31001.000			21.018			-3.503
31100.000			21.017			-3.503
31201.000			21.015			-3.503
31302.000			21.015			-3.502
31400.000			21.014			-3.502
31500.000			21.013			-3.502
31601.000			21.012			-3.502
31700.000			21.011			-3.502
31800.000			21.010			-3.502
31901.000			21.010			-3.502
32001.000			21.008			-3.501
32101.000			21.006			-3.501
32201.000			21.005			-3.501
32300.000			21.005			-3.501
32400.000			21.004			-3.501
32501.000			21.003			-3.500
32600.000			21.002			-3.500
32701.000			21.001			-3.500
32802.000			21.000			-3.500
32900.000			20.999			-3.500
33000.000			20.998			-3.500
33100.000			20.998			-3.500
33200.000			20.996			-3.499
33301.000			20.995			-3.499
33400.000			20.994			-3.499
33500.000			20.993			-3.499
33602.000			20.992			-3.499
33701.000			20.991			-3.498
33800.000			20.990			-3.498
33901.000			20.989			-3.498
34000.000			20.989			-3.498
34100.000			20.988			-3.498
34201.000			20.986			-3.498
34301.000			20.986			-3.498
34401.000			20.986			-3.498
34502.000			20.986			-3.498
34600.000			20.985			-3.497
34700.000			20.984			-3.497
34801.000			20.981			-3.497
34900.000			20.979			-3.497
35000.000			20.979			-3.497
35101.000			20.979			-3.496
35201.000			20.978			-3.496
35301.000			20.978			-3.496
35401.000			20.978			-3.496
35500.000			20.976			-3.496
35600.000			20.974			-3.496
35701.000			20.972			-3.495
35800.000			20.972			-3.495
35900.000			20.972			-3.495
36002.000			20.972			-3.495
36101.000			20.970			-3.495
36200.000			20.969			-3.495
36300.000			20.968			-3.495
36400.000			20.968			-3.495
36501.000			20.967			-3.494
36600.000			20.967			-3.494
36700.000			20.965			-3.494
36802.000			20.964			-3.494
36901.000			20.963			-3.494
37000.000			20.963			-3.494
37101.000			20.962			-3.494
37200.000			20.961			-3.493
37300.000			20.960			-3.493
37401.000			20.959			-3.493
37500.000			20.959			-3.493
37601.000			20.958			-3.493
37702.000			20.956			-3.493
37800.000			20.954			-3.492
37900.000			20.955			-3.492
38001.000			20.955			-3.492
38100.000			20.954			-3.492
38200.000			20.953			-3.492
38301.000			20.952			-3.492
38401.000			20.951			-3.492
38501.000			20.950			-3.492
38601.000			20.949			-3.492
38700.000			20.948			-3.491
38800.000			20.947			-3.491
38901.000			20.947			-3.491
39000.000			20.947			-3.491
39100.000			20.947			-3.491
39202.000			20.944			-3.491
39301.000			20.942			-3.490
39400.000			20.943			-3.491
39500.000			20.942			-3.490
39600.000			20.941			-3.490
39701.000			20.942			-3.490
39800.000			20.941			-3.490
39900.000			20.940			-3.490
40002.000			20.939			-3.490
40101.000			20.938			-3.490
40201.000			20.937			-3.490
40301.000			20.937			-3.489
40400.000			20.936			-3.489
40500.000			20.935			-3.489
40601.000			20.933			-3.489
40700.000			20.933			-3.489
40801.000			20.933			-3.489
40902.000			20.933			-3.489
41000.000			20.932			-3.489
41100.000			20.931			-3.488
41201.000			20.930			-3.488
41300.000			20.929			-3.488
41400.000			20.927			-3.488
41501.000			20.927			-3.488
41601.000			20.927			-3.488
41701.000			20.925			-3.488
41801.000			20.925			-3.487
41900.000			20.924			-3.487
42000.000			20.924			-3.487
42101.000			20.923			-3.487
42200.000			20.922			-3.487
42300.000			20.921			-3.487
42402.000			20.921			-3.487
42501.000			20.921			-3.487
42600.000			20.921			-3.487
42700.000			20.919			-3.486
42800.000			20.919			-3.486
42901.000			20.918			-3.486
43000.000			20.917			-3.486
43100.000			20.915			-3.486
43202.000			20.914			-3.486
43301.000			20.914			-3.486
43400.000			20.914			-3.486
43501.000			20.913			-3.486
43600.000			20.913			-3.485
43700.000			20.913			-3.485
43801.000			20.912			-3.485
43901.000			20.910			-3.485
44001.000			20.910			-3.485
44102.000			20.910			-3.485
44200.000			20.908			-3.485
44300.000			20.906			-3.484
44401.000			20.907			-3.484
44500.000			20.906			-3.484
44600.000			20.905			-3.484
44702.000			20.904			-3.484
44801.000			20.904			-3.484
44901.000			20.902			-3.484
45001.000			20.902			-3.484
45100.000			20.902			-3.484
45200.000			20.902			-3.484
45301.000			20.901			-3.484
45400.000			20.900			-3.483
45501.000			20.898			-3.483
45602.000			20.898			-3.483
45701.000			20.898			-3.483
45800.000			20.898			-3.483
45900.000			20.897			-3.483
46000.000			20.897			-3.483
46101.000			20.897			-3.483
46200.000			20.896			-3.483
46300.000			20.894			-3.482
46402.000			20.893			-3.482
46501.000			20.893			-3.482
46600.000			20.892			-3.482
46701.000			20.891			-3.482
46800.000			20.891			-3.482
46900.000			20.890			-3.482
47001.000			20.889			-3.482
47100.000			20.889			-3.482
47201.000			20.888			-3.481
47302.000			20.887			-3.481
47400.000			20.887			-3.481
47500.000			20.886			-3.481
47601.000			20.886			-3.481
47700.000			20.885			-3.481
47800.000			20.884			-3.481
47901.000			20.883			-3.481
48001.000			20.883			-3.480
48101.000			20.882			-3.480
48201.000			20.881			-3.480
48300.000			20.880			-3.480
48400.000			20.881			-3.480
48501.000			20.880			-3.480
48600.000			20.878			-3.480
48700.000			20.878			-3.480
48802.000			20.878			-3.480
48901.000			20.877			-3.479
49000.000			20.876			-3.479
49100.000			20.876			-3.479
49200.000			20.876			-3.479
49301.000			20.874			-3.479
49400.000			20.873			-3.479
49500.000			20.874			-3.479
49601.000			20.873			-3.479
49701.000			20.872			-3.479
49801.000			20.870			-3.478
49901.000			20.870			-3.478
50000.000			20.870			-3.478
50100.000			20.870			-3.478
50201.000			20.868			-3.478
50300.000			20.868			-3.478
50400.000			20.867			-3.478
50502.000			20.867			-3.478
50601.000			20.866			-3.478
50700.000			20.865			-3.477
50801.000			20.865			-3.477
50900.000			20.863			-3.477
51000.000			20.864			-3.477
51101.000			20.863			-3.477
51200.000			20.863			-3.477
51301.000			20.862			-3.477
51402.000			20.861			-3.477
51500.000			20.860			-3.477
51600.000			20.860			-3.477
51701.000			20.859			-3.477
51800.000			20.859			-3.476
51900.000			20.859			-3.476
52002.000			20.858			-3.476
52101.000			20.857			-3.476
52200.000			20.856			-3.476
52300.000			20.856			-3.476
52400.000			20.855			-3.476
52501.000			20.854			-3.476
52600.000			20.855			-3.476
52700.000			20.854			-3.476
52802.000			20.853			-3.475
52901.000			20.852			-3.475
53000.000			20.851			-3.475
53101.000			20.851			-3.475
53200.000			20.851			-3.475
53300.000			20.851			-3.475
53401.000			20.850			-3.475
53500.000			20.850			-3.475
53601.000			20.848			-3.475
53702.000			20.847			-3.475
53800.000			20.846			-3.474
53900.000			20.845			-3.474
54001.000			20.846			-3.474
54100.000			20.846			-3.474
54200.000			20.845			-3.474
54301.000			20.844			-3.474
54401.000			20.843			-3.474
54501.000			20.843			-3.474
54601.000			20.843			-3.474
54700.000			20.843			-3.474
54800.000			20.842			-3.474
54901.000			20.841			-3.474
55000.000			20.840			-3.473
55100.000			20.839			-3.473
55202.000			20.840			-3.473
55301.000			20.840			-3.473
55400.000			20.838			-3.473
55500.000			20.838			-3.473
55600.000			20.837			-3.473
55701.000			20.836			-3.473
55800.000			20.835			-3.473
55900.000			20.836			-3.473
56002.000			20.836			-3.473
56101.000			20.835			-3.472
56200.000			20.833			-3.472
56301.000			20.833			-3.472
56400.000			20.834			-3.472
56500.000			20.831			-3.472
56601.000			20.831			-3.472
56700.000			20.833			-3.472
56801.000			20.831			-3.472
56902.000			20.830			-3.472
57000.000			20.830			-3.472
57100.000			20.830			-3.472
57201.000			20.828			-3.471
57300.000			20.827			-3.471
57400.000			20.827			-3.471
57501.000			20.826			-3.471
57601.000			20.827			-3.471
57701.000			20.825			-3.471
57801.000			20.824			-3.471
57900.000			20.823			-3.471
58000.000			20.823			-3.470
58101.000			20.823			-3.470
58200.000			20.823			-3.471
58300.000			20.822			-3.470
58402.000			20.822			-3.470
58501.000			20.822			-3.470
58600.000			20.821			-3.470
58700.000			20.820			-3.470
58800.000			20.820			-3.470
58901.000			20.820			-3.470
59000.000			20.818			-3.470
59100.000			20.818			-3.470
59202.000			20.818			-3.470
59301.000			20.817			-3.469
59400.000			20.816			-3.469
59501.000			20.816			-3.469
59600.000			20.816			-3.469
59700.000			20.815			-3.469
59801.000			20.815			-3.469
59900.000			20.816			-3.469
60001.000			20.814			-3.469
60102.000			20.812			-3.469
60200.000			20.812			-3.469
60300.000			20.813			-3.469
60401.000			20.813			-3.469
60500.000			20.811			-3.469
60600.000			20.810			-3.468
60701.000			20.809			-3.468
60801.000			20.809			-3.468
60901.000			20.809			-3.468
61001.000			20.808			-3.468
61100.000			20.807			-3.468
61200.000			20.807			-3.468
61301.000			20.807			-3.468
61400.000			20.806			-3.468
61501.000			20.806			-3.468
61602.000			20.805			-3.467
61701.000			20.805			-3.468
61800.000			20.804			-3.467
61900.000			20.804			-3.467
62000.000			20.804			-3.467
62101.000			20.804			-3.467
62200.000			20.803			-3.467
62301.000			20.802			-3.467
62402.000			20.802			-3.467
62500.000			20.802			-3.467
62600.000			20.800			-3.467
62701.000			20.799			-3.467
62800.000			20.799			-3.467
62900.000			20.799			-3.466
63001.000			20.798			-3.466
63101.000			20.798			-3.466
63201.000			20.798			-3.466
63301.000			20.797			-3.466
63400.000			20.797			-3.466
63500.000			20.796			-3.466
63601.000			20.795			-3.466
63700.000			20.794			-3.466
63800.000			20.794			-3.466
63902.000			20.793			-3.465
64001.000			20.792			-3.465
64100.000			20.793			-3.465
64201.000			20.793			-3.466
64300.000			20.794			-3.466
64400.000			20.793			-3.465
64501.000			20.791			-3.465
64600.000			20.790			-3.465
64701.000			20.790			-3.465
64802.000			20.790			-3.465
64900.000			20.789			-3.465
65000.000			20.789			-3.465
65100.000			20.789			-3.465
65200.000			20.788			-3.465
65301.000			20.788			-3.465
65400.000			20.786			-3.464
65501.000			20.786			-3.464
65602.000			20.786			-3.464
65701.000			20.785			-3.464
65800.000			20.785			-3.464
65901.000			20.785			-3.464
66000.000			20.785			-3.464
66100.000			20.784			-3.464
66201.000			20.784			-3.464
66301.000			20.783			-3.464
66401.000			20.783			-3.464
66502.000			20.783			-3.464
66600.000			20.782			-3.464
66700.000			20.781			-3.464
66801.000			20.780			-3.463
66900.000			20.779			-3.463
67000.000			20.780			-3.463
67101.000			20.779			-3.463
67201.000			20.778			-3.463
67301.000			20.777			-3.463
67401.000			20.777			-3.463
67500.000			20.777			-3.463
67600.000			20.777			-3.463
67701.000			20.777			-3.463
67800.000			20.776			-3.463
67900.000			20.775			-3.463
68002.000			20.775			-3.462
68101.000			20.775			-3.462
68200.000			20.774			-3.462
68300.000			20.773			-3.462
68400.000			20.773			-3.462
68501.000			20.772			-3.462
68600.000			20.772			-3.462
68700.000			20.772			-3.462
68801.000			20.772			-3.462
68901.000			20.770			-3.462
69001.000			20.770			-3.462
69101.000			20.770			-3.462
69200.000			20.770			-3.462
69300.000			20.768			-3.461
69401.000			20.768			-3.461
69500.000			20.768			-3.461
69600.000			20.768			-3.461
69702.000			20.767			-3.461
69801.000			20.768			-3.461
69900.000			20.767			-3.461
70001.000			20.767			-3.461
70100.000			20.766			-3.461
70200.000			20.766			-3.461
70301.000			20.766			-3.461
70400.000			20.765			-3.461
70501.000			20.764			-3.461
70602.000			20.763			-3.460
70701.000			20.762			-3.460
70800.000			20.762			-3.460
70901.000			20.762			-3.460
71000.000			20.761			-3.460
71100.000			20.761			-3.460
71201.000			20.761			-3.460
71301.000			20.761			-3.460
71402.000			20.759			-3.460
71501.000			20.758			-3.460
71600.000			20.758			-3.460
71701.000			20.758			-3.460
71800.000			20.757			-3.459
71900.000			20.758			-3.460
72001.000			20.757			-3.459
72100.000			20.756			-3.459
72201.000			20.756			-3.459
72302.000			20.756			-3.459
72400.000			20.755			-3.459
72500.000			20.754			-3.459
72601.000			20.755			-3.459
72700.000			20.755			-3.459
72800.000			20.753			-3.459
72901.000			20.753			-3.459
73001.000			20.753			-3.459
73101.000			20.752			-3.459
73201.000			20.753			-3.459
73300.000			20.751			-3.459
73400.000			20.751			-3.458
73501.000			20.751			-3.459
73600.000			20.750			-3.458
73700.000			20.750			-3.458
73802.000			20.749			-3.458
73901.000			20.749			-3.458
74000.000			20.748			-3.458
74101.000			20.748			-3.458
74200.000			20.749			-3.458
74300.000			20.748			-3.458
74401.000			20.747			-3.458
74500.000			20.748			-3.458
74602.000			20.747			-3.458
74701.000			20.746			-3.458
74800.000			20.745			-3.458
74901.000			20.745			-3.457
75000.000			20.745			-3.458
75100.000			20.745			-3.457
75201.000			20.744			-3.457
75300.000			20.742			-3.457
75401.000			20.743			-3.457
75502.000			20.743			-3.457
75600.000			20.743			-3.457
75700.000			20.742			-3.457
75801.000			20.741			-3.457
75900.000			20.742			-3.457
76000.000			20.739			-3.456
76101.000			20.739			-3.457
76201.000			20.739			-3.457
76301.000			20.739			-3.456
76402.000			20.740			-3.457
76500.000			20.739			-3.456
76600.000			20.738			-3.456
76701.000			20.739			-3.457
76800.000			20.737			-3.456
76900.000			20.736			-3.456
77001.000			20.736			-3.456
77101.000			20.736			-3.456
77201.000			20.735			-3.456
77301.000			20.735			-3.456
77400.000			20.736			-3.456
77500.000			20.734			-3.456
77601.000			20.733			-3.455
77700.000			20.733			-3.455
77800.000			20.733			-3.456
77902.000			20.733			-3.455
78001.000			20.731			-3.455
78101.000			20.732			-3.455
78200.000			20.731			-3.455
78300.000			20.731			-3.455
78401.000			20.730			-3.455
78500.000			20.729			-3.455
78600.000			20.730			-3.455
78702.000			20.730			-3.455
78801.000			20.729			-3.455
78900.000			20.728			-3.455
79001.000			20.728			-3.455
79100.000			20.728			-3.455
79200.000			20.727			-3.455
79301.000			20.727			-3.454
79400.000			20.727			-3.454
79500.000			20.727			-3.454
79602.000			20.727			-3.454
79701.000			20.727			-3.455
79800.000			20.725			-3.454
79901.000			20.723			-3.454
80000.000			20.723			-3.454
80100.000			20.723			-3.454
80201.000			20.722			-3.454
80300.000			20.722			-3.454
80401.000			20.723			-3.454
80502.000			20.721			-3.454
80600.000			20.722			-3.454
80700.000			20.722			-3.454
80801.000			20.721			-3.453
80900.000			20.722			-3.454
81000.000			20.721			-3.453
81100.000			20.719			-3.453
81201.000			20.718			-3.453
81302.000			20.720			-3.453
81400.000			20.719			-3.453
81500.000			20.719			-3.453
81601.000			20.718			-3.453
81700.000			20.718			-3.453
81800.000			20.716			-3.453
81901.000			20.716			-3.453
82001.000			20.717			-3.453
82101.000			20.717			-3.453
82201.000			20.717			-3.453
82300.000			20.716			-3.453
82400.000			20.715			-3.452
82501.000			20.715			-3.452
82600.000			20.714			-3.452
82700.000			20.713			-3.452
82802.000			20.714			-3.452
82901.000			20.713			-3.452
83000.000			20.712			-3.452
83101.000			20.712			-3.452
83200.000			20.713			-3.452
83300.000			20.712			-3.452
83401.000			20.711			-3.452
83500.000			20.711			-3.452
83601.000			20.710			-3.452
83702.000			20.710			-3.452
83800.000			20.709			-3.451
83900.000			20.707			-3.451
84001.000			20.709			-3.452
84100.000			20.709			-3.451
84200.000			20.707			-3.451
84300.000			20.707			-3.451
84401.000			20.707			-3.451
84502.000			20.707			-3.451
84600.000			20.707			-3.451
84700.000			20.706			-3.451
84801.000			20.707			-3.451
84900.000			20.706			-3.451
85000.000			20.705			-3.451
85101.000			20.704			-3.451
85201.000			20.703			-3.451
85301.000			20.703			-3.451
85401.000			20.702			-3.450
85500.000			20.703			-3.450
85600.000			20.702			-3.450
85701.000			20.702			-3.450
85800.000			20.701			-3.450
85900.000			20.702			-3.450
86002.000			20.701			-3.450
86101.000			20.701			-3.450
86200.000			20.700			-3.450
86301.000			20.700			-3.450
86400.000			20.699			-3.450
86500.000			20.700			-3.450
86601.000			20.699			-3.450
86700.000			20.698			-3.450
86801.000			20.697			-3.450
86902.000			20.697			-3.449
87000.000			20.697			-3.450
87100.000			20.697			-3.449
87201.000			20.697			-3.449
87300.000			20.697			-3.449
87400.000			20.696			-3.449
87500.000			20.696			-3.449
87601.000			20.695			-3.449
87702.000			20.694			-3.449
87801.000			20.695			-3.449
87900.000			20.694			-3.449
88001.000			20.692			-3.449
88100.000			20.692			-3.449
88200.000			20.693			-3.449
88301.000			20.692			-3.449
88400.000			20.691			-3.448
88501.000			20.690			-3.448
88602.000			20.690			-3.448
88700.000			20.689			-3.448
88800.000			20.690			-3.448
88901.000			20.690			-3.448
89000.000			20.690			-3.448
89100.000			20.689			-3.448
89201.000			20.689			-3.448
89301.000			20.688			-3.448
89401.000			20.687			-3.448
89502.000			20.686			-3.448
89600.000			20.686			-3.448
89700.000			20.687			-3.448
89801.000			20.685			-3.447
89900.000			20.685			-3.448
90000.000			20.686			-3.448
90101.000			20.685			-3.448
90201.000			20.685			-3.448
90301.000			20.685			-3.447
90401.000			20.684			-3.447
90500.000			20.684			-3.447
90600.000			20.683			-3.447
90700.000			20.683			-3.447
90800.000			20.683			-3.447
90901.000			20.682			-3.447
91001.000			20.682			-3.447
91101.000			20.681			-3.447
91201.000			20.681			-3.447
91300.000			20.680			-3.447
91400.000			20.681			-3.447
91501.000			20.680			-3.447
91600.000			20.679			-3.447
91700.000			20.680			-3.447
91802.000			20.680			-3.447
91901.000			20.680			-3.447
92000.000			20.679			-3.447
92101.000			20.679			-3.447
92200.000			20.679			-3.447
92300.000			20.678			-3.446
92401.000			20.678			-3.446
92500.000			20.678			-3.446
92601.000			20.677			-3.446
92702.000			20.676			-3.446
92801.000			20.675			-3.446
92900.000			20.676			-3.446
93001.000			20.676			-3.446
93100.000			20.676			-3.446
93200.000			20.675			-3.446
93301.000			20.675			-3.446
93400.000			20.675			-3.446
93501.000			20.674			-3.446
93602.000			20.673			-3.445
93700.000			20.673			-3.445
93800.000			20.672			-3.445
93900.000			20.671			-3.445
94000.000			20.671			-3.445
94101.000			20.671			-3.445
94200.000			20.671			-3.445
94301.000			20.671			-3.445
94402.000			20.670			-3.445
94500.000			20.670			-3.445
94600.000			20.671			-3.445
94701.000			20.670			-3.445
94800.000			20.669			-3.445
94900.000			20.670			-3.445
95001.000			20.670			-3.445
95101.000			20.668			-3.445
95201.000			20.667			-3.444
95302.000			20.667			-3.444
95400.000			20.666			-3.444
95500.000			20.667			-3.444
95601.000			20.666			-3.444
95700.000			20.666			-3.444
95800.000			20.667			-3.444
95901.000			20.667			-3.444
96001.000			20.666			-3.444
96101.000			20.665			-3.444
96201.000			20.665			-3.444
96300.000			20.665			-3.444
96400.000			20.664			-3.444
96501.000			20.664			-3.444
96600.000			20.662			-3.444
96700.000			20.663			-3.444
96802.000			20.663			-3.444
96901.000			20.662			-3.444
97000.000			20.662			-3.444
97100.000			20.662			-3.444
97200.000			20.662			-3.444
97301.000			20.661			-3.443
97400.000			20.661			-3.443
97500.000			20.661			-3.443
97602.000			20.661			-3.444
97701.000			20.660			-3.443
97800.000			20.660			-3.443
97901.000			20.659			-3.443
98000.000			20.659			-3.443
98100.000			20.659			-3.443
98201.000			20.658			-3.443
98300.000			20.658			-3.443
98400.000			20.659			-3.443
98502.000			20.657			-3.443
98601.000			20.657			-3.443
98700.000			20.658			-3.443
98801.000			20.657			-3.443
98900.000			20.657			-3.443
99000.000			20.656			-3.443
99101.000			20.656			-3.443
99200.000			20.657			-3.443
99301.000			20.655			-3.443
99402.000			20.654			-3.442
99500.000			20.654			-3.442
99600.000			20.654			-3.442
99701.000			20.654			-3.442
99800.000			20.654			-3.442
99900.000			20.653			-3.442
100001.000			20.653			-3.442
100100.000			20.653			-3.442
100202.000			20.652			-3.442
100301.000			20.651			-3.442
100400.000			20.651			-3.442
100501.000			20.651			-3.442
100600.000			20.651			-3.442
100700.000			20.650			-3.442
100801.000			20.651			-3.442
100900.000			20.650			-3.442
101001.000			20.649			-3.441
101102.000			20.648			-3.441
101200.000			20.649			-3.441
101300.000			20.649			-3.441
101401.000			20.648			-3.441
101500.000			20.648			-3.441
101600.000			20.648			-3.441
101701.000			20.648			-3.441
101801.000			20.648			-3.441
101901.000			20.647			-3.441
102001.000			20.647			-3.441
102100.000			20.646			-3.441
102200.000			20.645			-3.441
102301.000			20.646			-3.441
102400.000			20.645			-3.441
102500.000			20.645			-3.441
102602.000			20.645			-3.441
102701.000			20.645			-3.441
102800.000			20.644			-3.441
102901.000			20.644			-3.441
103000.000			20.643			-3.441
103100.000			20.643			-3.441
103201.000			20.642			-3.440
103300.000			20.642			-3.440
103402.000			20.642			-3.440
103501.000			20.641			-3.440
103601.000			20.642			-3.440
103701.000			20.640			-3.440
103800.000			20.639			-3.440
103900.000			20.638			-3.440
104001.000			20.638			-3.440
104100.000			20.639			-3.440
104200.000			20.639			-3.440
104302.000			20.639			-3.440
104401.000			20.639			-3.440
104500.000			20.639			-3.440
104601.000			20.639			-3.440
104700.000			20.639			-3.440
104800.000			20.638			-3.440
104901.000			20.637			-3.439
105000.000			20.635			-3.439
105101.000			20.635			-3.439
105202.000			20.636			-3.439
105300.000			20.636			-3.439
105400.000			20.636			-3.439
105501.000			20.636			-3.439
105600.000			20.635			-3.439
105700.000			20.635			-3.439
105801.000			20.635			-3.439
105901.000			20.635			-3.439
106001.000			20.634			-3.439
106101.000			20.633			-3.439
106200.000			20.632			-3.439
106300.000			20.633			-3.439
106401.000			20.633			-3.439
106500.000			20.633			-3.439
106600.000			20.634			-3.439
106702.000			20.633			-3.439
106801.000			20.632			-3.439
106902.000			20.632			-3.439
107000.000			20.632			-3.439
107100.000			20.631			-3.439
107201.000			20.630			-3.438
107300.000			20.630			-3.438
107400.000			20.630			-3.438
107501.000			20.630			-3.438
107601.000			20.630			-3.438
107701.000			20.629			-3.438
107801.000			20.629			-3.438
107900.000			20.628			-3.438
108000.000			20.628			-3.438
108101.000			20.628			-3.438
108200.000			20.627			-3.438
108300.000			20.627			-3.438
108402.000			20.627			-3.438
108501.000			20.628			-3.438
108600.000			20.627			-3.438
108701.000			20.626			-3.438
108800.000			20.626			-3.438
108900.000			20.625			-3.438
109001.000			20.624			-3.437
109100.000			20.625			-3.438
109200.000			20.626			-3.438
109302.000			20.625			-3.437
109401.000			20.624			-3.437
109500.000			20.624			-3.437
109601.000			20.624			-3.437
109700.000			20.624			-3.437
109800.000			20.624			-3.437
109900.000			20.624			-3.437
110000.000			20.623			-3.437
110102.000			20.622			-3.437
110201.000			20.622			-3.437
110300.000			20.622			-3.437
110401.000			20.621			-3.437
110500.000			20.620			-3.437
110600.000			20.621			-3.437
110701.000			20.620			-3.437
110800.000			20.620			-3.437
110901.000			20.618			-3.436
111002.000			20.620			-3.437
111100.000			20.620			-3.437
111200.000			20.618			-3.436
111301.000			20.618			-3.436
111400.000			20.618			-3.436
111500.000			20.617			-3.436
111601.000			20.618			-3.436
111701.000			20.618			-3.436
111801.000			20.617			-3.436
111901.000			20.617			-3.436
112000.000			20.616			-3.436
112100.000			20.616			-3.436
112201.000			20.616			-3.436
112300.000			20.616			-3.436
112400.000			20.616			-3.436
112502.000			20.615			-3.436
112601.000			20.615			-3.436
112700.000			20.615			-3.436
112801.000			20.615			-3.436
112900.000			20.614			-3.436
113000.000			20.613			-3.436
113100.000			20.613			-3.436
113200.000			20.613			-3.436
113302.000			20.614			-3.436
113401.000			20.612			-3.435
113500.000			20.611			-3.435
113601.000			20.612			-3.435
113700.000			20.611			-3.435
113800.000			20.611			-3.435
113901.000			20.610			-3.435
114000.000			20.609			-3.435
114101.000			20.610			-3.435
114202.000			20.610			-3.435
114300.000			20.610			-3.435
114400.000			20.609			-3.435
114501.000			20.610			-3.435
114600.000			20.610			-3.435
114700.000			20.609			-3.435
114801.000			20.609			-3.435
114901.000			20.608			-3.435
115001.000			20.606			-3.434
115102.000			20.608			-3.435
115200.000			20.607			-3.435
115300.000			20.607			-3.434
115401.000			20.606			-3.434
115500.000			20.606			-3.434
115600.000			20.606			-3.434
115701.000			20.607			-3.434
115801.000			20.605			-3.434
115901.000			20.605			-3.434
116001.000			20.605			-3.434
116100.000			20.604			-3.434
116200.000			20.604			-3.434
116300.000			20.604			-3.434
116400.000			20.603			-3.434
116501.000			20.604			-3.434
116601.000			20.604			-3.434
116701.000			20.604			-3.434
116801.000			20.603			-3.434
116900.000			20.603			-3.434
117000.000			20.603			-3.434
117101.000			20.602			-3.434
117200.000			20.602			-3.434
117300.000			20.602			-3.434
117402.000			20.602			-3.434
117501.000			20.601			-3.433
117600.000			20.601			-3.433
117701.000			20.600			-3.433
117800.000			20.600			-3.433
117900.000			20.601			-3.433
118001.000			20.599			-3.433
118100.000			20.599			-3.433
118201.000			20.599			-3.433
118302.000			20.599			-3.433
118401.000			20.598			-3.433
118500.000			20.598			-3.433
118601.000			20.598			-3.433
118700.000			20.598			-3.433
118800.000			20.598			-3.433
118901.000			20.597			-3.433
119000.000			20.596			-3.433
119101.000			20.596			-3.433
119202.000			20.596			-3.433
119301.000			20.595			-3.433
119400.000			20.595			-3.433
119500.000			20.596			-3.433
119600.000			20.595			-3.433
119701.000			20.595			-3.433
119800.000			20.595			-3.433
119900.000			20.595			-3.432
120002.000			20.594			-3.432
120101.000			20.593			-3.432
120200.000			20.594			-3.432
120301.000			20.593			-3.432
120400.000			20.593			-3.432
120500.000			20.594			-3.432
120601.000			20.592			-3.432
120700.000			20.592			-3.432
120801.000			20.592			-3.432
120902.000			20.592			-3.432
121001.000			20.592			-3.432
121100.000			20.591			-3.432
121201.000			20.591			-3.432
121300.000			20.591			-3.432
121400.000			20.591			-3.432
121501.000			20.590			-3.432
121600.000			20.590			-3.432
121701.000			20.589			-3.432
121802.000			20.589			-3.432
121900.000			20.589			-3.431
122000.000			20.588			-3.431
122101.000			20.589			-3.431
122200.000			20.589			-3.431
122300.000			20.588			-3.431
122401.000			20.588			-3.431
122501.000			20.587			-3.431
122602.000			20.587			-3.431
122700.000			20.586			-3.431
122800.000			20.586			-3.431
122901.000			20.587			-3.431
123000.000			20.586			-3.431
123100.000			20.585			-3.431
123201.000			20.585			-3.431
123301.000			20.585			-3.431
123401.000			20.585			-3.431
123502.000			20.585			-3.431
123600.000			20.584			-3.431
123700.000			20.585			-3.431
123801.000			20.584			-3.431
123900.000			20.584			-3.431
124000.000			20.584			-3.431
124101.000			20.583			-3.430
124201.000			20.583			-3.431
124301.000			20.584			-3.431
124401.000			20.583			-3.430
124500.000			20.583			-3.431
124600.000			20.582			-3.430
124701.000			20.582			-3.430
124800.000			20.581			-3.430
124900.000			20.581			-3.430
125002.000			20.582			-3.430
125101.000			20.581			-3.430
125200.000			20.581			-3.430
125301.000			20.580			-3.430
125400.000			20.580			-3.430
125500.000			20.580			-3.430
125601.000			20.580			-3.430
125700.000			20.579			-3.430
125800.000			20.580			-3.430
125902.000			20.579			-3.430
126001.000			20.578			-3.430
126101.000			20.578			-3.430
126200.000			20.577			-3.430
126300.000			20.577			-3.430
126401.000			20.577			-3.430
126500.000			20.577			-3.430
126600.000			20.578			-3.430
126702.000			20.577			-3.430
126801.000			20.577			-3.429
126901.000			20.576			-3.429
127001.000			20.576			-3.429
127100.000			20.576			-3.429
127200.000			20.576			-3.429
127301.000			20.575			-3.429
127400.000			20.575			-3.429
127500.000			20.575			-3.429
127602.000			20.574			-3.429
127701.000			20.574			-3.429
127800.000			20.574			-3.429
127901.000			20.573			-3.429
128000.000			20.573			-3.429
128100.000			20.572			-3.429
128201.000			20.572			-3.429
128300.000			20.572			-3.429
128400.000			20.571			-3.429
128502.000			20.572			-3.429
128601.000			20.572			-3.429
128700.000			20.571			-3.429
128801.000			20.572			-3.429
128900.000			20.571			-3.428
129000.000			20.570			-3.428
129100.000			20.570			-3.428
129200.000			20.570			-3.428
129302.000			20.570			-3.428
129401.000			20.570			-3.428
129500.000			20.570			-3.428
129601.000			20.568			-3.428
129700.000			20.568			-3.428
129800.000			20.569			-3.428
129901.000			20.569			-3.428
130000.000			20.569			-3.428
130101.000			20.569			-3.428
130202.000			20.568			-3.428
130301.000			20.567			-3.428
130400.000			20.567			-3.428
130501.000			20.567			-3.428
130600.000			20.567			-3.428
130700.000			20.568			-3.428
130801.000			20.566			-3.428
130900.000			20.565			-3.428
131001.000			20.565			-3.427
131102.000			20.565			-3.427
131200.000			20.566			-3.428
131300.000			20.565			-3.428
131401.000			20.565			-3.428
131500.000			20.564			-3.427
131600.000			20.564			-3.427
131701.000			20.564			-3.427
131800.000			20.563			-3.427
131901.000			20.563			-3.427
132002.000			20.562			-3.427
132100.000			20.563			-3.427
132200.000			20.563			-3.427
132300.000			20.563			-3.427
132400.000			20.564			-3.427
132501.000			20.562			-3.427
132600.000			20.562			-3.427
132700.000			20.562			-3.427
132802.000			20.561			-3.427
132901.000			20.561			-3.427
133000.000			20.562			-3.427
133101.000			20.561			-3.427
133200.000			20.561			-3.427
133300.000			20.559			-3.427
133401.000			20.559			-3.427
133500.000			20.560			-3.427
133600.000			20.559			-3.427
133702.000			20.560			-3.427
133801.000			20.559			-3.427
133900.000			20.559			-3.426
134001.000			20.559			-3.427
134100.000			20.559			-3.426
134200.000			20.558			-3.426
134301.000			20.558			-3.426
134400.000			20.558			-3.426
134500.000			20.558			-3.426
134602.000			20.558			-3.426
134701.000			20.557			-3.426
134801.000			20.557			-3.426
134901.000			20.556			-3.426
135000.000			20.556			-3.426
135100.000			20.556			-3.426
135201.000			20.556			-3.426
135300.000			20.555			-3.426
135400.000			20.556			-3.426
135502.000			20.555			-3.426
135601.000			20.555			-3.426
135702.000			20.554			-3.426
135800.000			20.554			-3.426
135900.000			20.555			-3.426
136001.000			20.554			-3.426
136100.000			20.554			-3.426
136200.000			20.553			-3.426
136301.000			20.552			-3.425
136401.000			20.553			-3.425
136501.000			20.553			-3.425
136602.000			20.553			-3.425
136700.000			20.551			-3.425
136800.000			20.551			-3.425
136901.000			20.551			-3.425
137000.000			20.551			-3.425
137100.000			20.551			-3.425
137201.000			20.551			-3.425
137301.000			20.551			-3.425
137401.000			20.550			-3.425
137502.000			20.549			-3.425
137600.000			20.550			-3.425
137700.000			20.550			-3.425
137801.000			20.549			-3.425
137900.000			20.548			-3.425
138000.000			20.547			-3.425
138101.000			20.548			-3.425
138200.000			20.548			-3.425
138301.000			20.547			-3.425
138402.000			20.547			-3.424
138500.000			20.546			-3.424
138600.000			20.546			-3.424
138700.000			20.547			-3.424
138800.000			20.548			-3.425
138901.000			20.548			-3.425
139000.000			20.546			-3.424
139100.000			20.545			-3.424
139202.000			20.545			-3.424
139301.000			20.546			-3.424
139401.000			20.546			-3.424
139501.000			20.545			-3.424
139600.000			20.545			-3.424
139700.000			20.545			-3.424
139801.000			20.545			-3.424
139900.000			20.544			-3.424
140000.000			20.543			-3.424
140102.000			20.542			-3.424
140201.000			20.543			-3.424
140301.000			20.544			-3.424
140401.000			20.543			-3.424
140500.000			20.542			-3.424
140600.000			20.542			-3.424
140701.000			20.541			-3.424
140800.000			20.542			-3.424
140900.000			20.542			-3.424
141002.000			20.541			-3.424
141101.000			20.541			-3.424
141201.000			20.541			-3.423
141301.000			20.540			-3.423
141400.000			20.541			-3.423
141500.000			20.540			-3.423
141601.000			20.540			-3.423
141700.000			20.541			-3.423
141800.000			20.540			-3.423
141902.000			20.539			-3.423
142001.000			20.539			-3.423
142101.000			20.539			-3.423
142200.000			20.538			-3.423
142300.000			20.539			-3.423
142401.000			20.539			-3.423
142500.000			20.537			-3.423
142600.000			20.538			-3.423
142701.000			20.537			-3.423
142801.000			20.536			-3.423
142901.000			20.536			-3.423
143002.000			20.536			-3.423
143100.000			20.536			-3.423
143200.000			20.537			-3.423
143301.000			20.535			-3.423
143400.000			20.536			-3.423
143500.000			20.535			-3.423
143601.000			20.535			-3.422
143701.000			20.534			-3.422
143801.000			20.535			-3.422
143902.000			20.535			-3.422
144000.000			20.535			-3.422
144100.000			20.535			-3.422
144201.000			20.534			-3.422
144300.000			20.534			-3.422
144400.000			20.533			-3.422
144501.000			20.534			-3.422
144601.000			20.534			-3.422
144701.000			20.533			-3.422
144802.000			20.532			-3.422
144900.000			20.532			-3.422
145000.000			20.531			-3.422
145100.000			20.532			-3.422
145200.000			20.532			-3.422
145301.000			20.532			-3.422
145400.000			20.531			-3.422
145500.000			20.532			-3.422
145602.000			20.531			-3.422
145701.000			20.531			-3.422
145800.000			20.531			-3.422
145901.000			20.530			-3.422
146000.000			20.529			-3.422
146100.000			20.531			-3.422
146201.000			20.529			-3.422
146300.000			20.529			-3.421
146400.000			20.529			-3.422
146502.000			20.528			-3.421
146601.000			20.528			-3.421
146700.000			20.528			-3.421
146801.000			20.528			-3.421
146900.000			20.528			-3.421
147000.000			20.529			-3.421
147101.000			20.528			-3.421
147200.000			20.528			-3.421
147300.000			20.528			-3.421
147402.000			20.528			-3.421
147501.000			20.527			-3.421
147601.000			20.526			-3.421
147701.000			20.525			-3.421
147800.000			20.525			-3.421
147900.000			20.525			-3.421
148001.000			20.525			-3.421
148100.000			20.525			-3.421
148200.000			20.525			-3.421
148302.000			20.524			-3.421
148401.000			20.525			-3.421
148502.000			20.525			-3.421
148600.000			20.524			-3.421
148700.000			20.524			-3.421
148801.000			20.524			-3.421
148900.000			20.523			-3.420
149000.000			20.523			-3.421
149101.000			20.522			-3.420
149200.000			20.523			-3.420
149301.000			20.523			-3.420
149402.000			20.523			-3.420
149500.000			20.523			-3.420
149600.000			20.522			-3.420
149701.000			20.521			-3.420
149800.000			20.521			-3.420
149900.000			20.522			-3.420
150001.000			20.521			-3.420
150100.000			20.520			-3.420
150201.000			20.520			-3.420
150302.000			20.520			-3.420
150400.000			20.520			-3.420
150500.000			20.520			-3.420
150601.000			20.520			-3.420
150700.000			20.520			-3.420
150800.000			20.519			-3.420
150901.000			20.518			-3.420
151000.000			20.519			-3.420
151101.000			20.519			-3.420
151202.000			20.517			-3.420
151300.000			20.520			-3.420
151400.000			20.520			-3.420
151500.000			20.518			-3.420
151600.000			20.517			-3.420
151701.000			20.517			-3.419
151800.000			20.517			-3.419
151900.000			20.516			-3.419
152002.000			20.515			-3.419
152101.000			20.516			-3.419
152200.000			20.516			-3.419
152301.000			20.516			-3.419
152400.000			20.516			-3.419
152500.000			20.515			-3.419
152601.000			20.515			-3.419
152700.000			20.515			-3.419
152800.000			20.515			-3.419
152902.000			20.515			-3.419
153001.000			20.514			-3.419
153100.000			20.514			-3.419
153201.000			20.513			-3.419
153300.000			20.513			-3.419
153400.000			20.513			-3.419
153501.000			20.513			-3.419
153600.000			20.512			-3.419
153700.000			20.511			-3.419
153802.000			20.513			-3.419
153901.000			20.514			-3.419
154000.000			20.512			-3.419
154101.000			20.512			-3.419
154200.000			20.513			-3.419
154300.000			20.512			-3.419
154401.000			20.512			-3.419
154500.000			20.513			-3.419
154602.000			20.512			-3.419
154701.000			20.511			-3.419
154801.000			20.510			-3.418
154901.000			20.511			-3.418
155000.000			20.510			-3.418
155100.000			20.511			-3.418
155201.000			20.510			-3.418
155300.000			20.509			-3.418
155400.000			20.509			-3.418
155502.000			20.510			-3.418
155601.000			20.509			-3.418
155701.000			20.509			-3.418
155801.000			20.509			-3.418
155900.000			20.506			-3.418
156000.000			20.507			-3.418
156101.000			20.507			-3.418
156200.000			20.507			-3.418
156300.000			20.507			-3.418
156401.000			20.507			-3.418
156501.000			20.508			-3.418
156601.000			20.507			-3.418
156701.000			20.507			-3.418
156800.000			20.507			-3.418
156900.000			20.507			-3.418
157001.000			20.507			-3.418
157100.000			20.507			-3.418
157200.000			20.506			-3.418
157301.000			20.506			-3.418
157401.000			20.506			-3.418
157501.000			20.505			-3.417
157601.000			20.504			-3.417
157700.000			20.504			-3.417
157800.000			20.504			-3.417
157900.000			20.504			-3.417
158000.000			20.504			-3.417
158101.000			20.503			-3.417
158200.000			20.503			-3.417
158301.000			20.503			-3.417
158402.000			20.504			-3.417
158500.000			20.503			-3.417
158600.000			20.503			-3.417
158701.000			20.501			-3.417
158800.000			20.502			-3.417
158900.000			20.502			-3.417
159001.000			20.502			-3.417
159100.000			20.502			-3.417
159201.000			20.502			-3.417
159302.000			20.502			-3.417
159400.000			20.501			-3.417
159500.000			20.501			-3.417
159601.000			20.501			-3.417
159700.000			20.501			-3.417
159800.000			20.501			-3.417
159901.000			20.500			-3.417
160000.000			20.500			-3.417
160101.000			20.499			-3.417
160202.000			20.499			-3.416
160301.000			20.500			-3.417
160400.000			20.500			-3.417
160501.000			20.499			-3.417
160600.000			20.499			-3.416
160700.000			20.498			-3.416
160801.000			20.499			-3.416
160900.000			20.499			-3.416
161000.000			20.498			-3.416
161102.000			20.499			-3.416
161201.000			20.498			-3.416
161301.000			20.496			-3.416
161400.000			20.497			-3.416
161500.000			20.497			-3.416
161601.000			20.496			-3.416
161700.000			20.497			-3.416
161800.000			20.497			-3.416
161901.000			20.496			-3.416
162001.000			20.495			-3.416
162101.000			20.495			-3.416
162201.000			20.495			-3.416
162300.000			20.496			-3.416
162400.000			20.497			-3.416
162501.000			20.496			-3.416
162600.000			20.496			-3.416
162700.000			20.495			-3.416
162801.000			20.494			-3.416
162901.000			20.494			-3.416
163001.000			20.494			-3.416
163102.000			20.494			-3.416
163200.000			20.494			-3.416
163300.000			20.494			-3.416
163401.000			20.494			-3.416
163500.000			20.493			-3.415
163600.000			20.493			-3.416
163701.000			20.493			-3.415
163800.000			20.492			-3.415
163901.000			20.492			-3.415
164002.000			20.492			-3.415
164100.000			20.492			-3.415
164200.000			20.492			-3.415
164300.000			20.492			-3.415
164400.000			20.491			-3.415
164501.000			20.491			-3.415
164600.000			20.491			-3.415
164700.000			20.490			-3.415
164802.000			20.490			-3.415
164901.000			20.492			-3.415
165001.000			20.489			-3.415
165101.000			20.489			-3.415
165200.000			20.489			-3.415
165300.000			20.489			-3.415
165401.000			20.489			-3.415
165500.000			20.490			-3.415
165600.000			20.490			-3.415
165701.000			20.489			-3.415
165801.000			20.489			-3.415
165901.000			20.488			-3.415
166001.000			20.489			-3.415
166100.000			20.487			-3.415
166200.000			20.486			-3.414
166301.000			20.487			-3.414
166400.000			20.487			-3.414
166500.000			20.487			-3.414
166601.000			20.487			-3.414
166701.000			20.487			-3.414
166801.000			20.486			-3.414
166902.000			20.487			-3.414
167000.000			20.488			-3.415
167100.000			20.486			-3.414
167201.000			20.485			-3.414
167300.000			20.486			-3.414
167400.000			20.486			-3.414
167500.000			20.485			-3.414
167600.000			20.484			-3.414
167702.000			20.484			-3.414
167801.000			20.484			-3.414
167901.000			20.486			-3.414
168001.000			20.485			-3.414
168100.000			20.484			-3.414
168200.000			20.483			-3.414
168301.000			20.483			-3.414
168400.000			20.483			-3.414
168500.000			20.482			-3.414
168601.000			20.483			-3.414
168701.000			20.483			-3.414
168801.000			20.483			-3.414
168901.000			20.482			-3.414
169000.000			20.482			-3.414
169100.000			20.482			-3.414
169201.000			20.482			-3.414
169300.000			20.481			-3.413
169400.000			20.481			-3.413
169501.000			20.481			-3.413
169601.000			20.480			-3.413
169701.000			20.480			-3.413
169801.000			20.480			-3.413
169900.000			20.480			-3.413
170000.000			20.479			-3.413
170101.000			20.480			-3.413
170200.000			20.480			-3.413
170300.000			20.480			-3.413
170401.000			20.479			-3.413
170501.000			20.479			-3.413
170602.000			20.479			-3.413
170701.000			20.479			-3.413
170800.000			20.480			-3.413
170901.000			20.479			-3.413
171000.000			20.479			-3.413
171100.000			20.479			-3.413
171201.000			20.478			-3.413
171300.000			20.477			-3.413
171400.000			20.478			-3.413
171502.000			20.477			-3.413
171601.000			20.477			-3.413
171701.000			20.477			-3.413
171801.000			20.477			-3.413
171900.000			20.477			-3.413
172000.000			20.477			-3.413
172101.000			20.478			-3.413
172200.000			20.477			-3.413
172300.000			20.477			-3.413
172402.000			20.476			-3.413
172501.000			20.475			-3.413
172601.000			20.475			-3.413
172701.000			20.475			-3.412
172800.000			20.474			-3.412
172900.000			20.475			-3.413
173001.000			20.476			-3.413
173100.000			20.475			-3.412
173200.000			20.473			-3.412
173301.000			20.474			-3.412
173401.000			20.474			-3.412
173501.000			20.475			-3.412
173601.000			20.475			-3.413
173700.000			20.474			-3.412
173800.000			20.472			-3.412
173900.000			20.472			-3.412
174000.000			20.473			-3.412
174101.000			20.472			-3.412
174200.000			20.471			-3.412
174301.000			20.472			-3.412
174402.000			20.472			-3.412
174500.000			20.471			-3.412
174600.000			20.471			-3.412
174701.000			20.472			-3.412
174800.000			20.472			-3.412
174900.000			20.471			-3.412
175001.000			20.471			-3.412
175100.000			20.471			-3.412
175201.000			20.471			-3.412
175302.000			20.471			-3.412
175400.000			20.470			-3.412
175500.000			20.470			-3.412
175601.000			20.470			-3.412
175700.000			20.470			-3.412
175800.000			20.469			-3.411
175901.000			20.469			-3.412
176000.000			20.470			-3.412
176100.000			20.469			-3.411
176202.000			20.469			-3.411
176301.000			20.469			-3.412
176400.000			20.469			-3.411
176501.000			20.468			-3.411
176600.000			20.468			-3.411
176700.000			20.468			-3.411
176801.000			20.468			-3.411
176900.000			20.469			-3.411
177000.000			20.469			-3.411
177102.000			20.467			-3.411
177201.000			20.468			-3.411
177302.000			20.468			-3.411
177400.000			20.467			-3.411
177500.000			20.465			-3.411
177601.000			20.465			-3.411
177700.000			20.467			-3.411
177800.000			20.466			-3.411
177901.000			20.466			-3.411
178000.000			20.466			-3.411
178101.000			20.466			-3.411
178202.000			20.465			-3.411
178300.000			20.465			-3.411
178400.000			20.466			-3.411
178501.000			20.467			-3.411
178600.000			20.467			-3.411
178700.000			20.465			-3.411
178801.000			20.465			-3.411
178900.000			20.466			-3.411
179001.000			20.465			-3.411
179102.000			20.464			-3.411
179201.000			20.464			-3.411
179300.000			20.463			-3.410
179401.000			20.463			-3.411
179500.000			20.463			-3.411
179600.000			20.463			-3.411
179701.000			20.464			-3.411
179800.000			20.463			-3.410
179900.000			20.462			-3.410
180002.000			20.462			-3.410
180101.000			20.461			-3.410
180200.000			20.461			-3.410
180300.000			20.461			-3.410
180400.000			20.461			-3.410
180501.000			20.461			-3.410
180600.000			20.462			-3.410
180700.000			20.461			-3.410
180801.000			20.462			-3.410
180901.000			20.461			-3.410
181001.000			20.460			-3.410
181101.000			20.461			-3.410
181200.000			20.461			-3.410
181300.000			20.462			-3.410
181401.000			20.460			-3.410
181500.000			20.460			-3.410
181600.000			20.460			-3.410
181701.000			20.460			-3.410
181801.000			20.461			-3.410
181901.000			20.460			-3.410
182001.000			20.458			-3.410
182100.000			20.457			-3.410
182200.000			20.458			-3.410
182301.000			20.458			-3.410
182400.000			20.458			-3.410
182500.000			20.458			-3.410
182601.000			20.457			-3.410
182701.000			20.457			-3.409
182801.000			20.457			-3.409
182901.000			20.456			-3.409
183000.000			20.457			-3.409
183100.000			20.457			-3.409
183201.000			20.457			-3.409
183300.000			20.457			-3.410
183400.000			20.457			-3.410
183500.000			20.456			-3.409
183601.000			20.455			-3.409
183702.000			20.455			-3.409
183801.000			20.455			-3.409
183900.000			20.454			-3.409
184001.000			20.454			-3.409
184100.000			20.455			-3.409
184200.000			20.456			-3.409
184301.000			20.455			-3.409
184400.000			20.454			-3.409
184501.000			20.454			-3.409
184602.000			20.454			-3.409
184701.000			20.454			-3.409
184800.000			20.453			-3.409
184901.000			20.453			-3.409
185000.000			20.453			-3.409
185100.000			20.453			-3.409
185201.000			20.452			-3.409
185300.000			20.451			-3.409
185400.000			20.452			-3.409
185502.000			20.452			-3.409
185601.000			20.452			-3.409
185700.000			20.452			-3.409
185801.000			20.452			-3.409
185900.000			20.451			-3.409
186000.000			20.451			-3.409
186101.000			20.451			-3.408
186200.000			20.450			-3.408
186300.000			20.450			-3.408
186402.000			20.451			-3.408
186501.000			20.451			-3.408
186600.000			20.450			-3.408
186700.000			20.450			-3.408
186800.000			20.450			-3.408
186901.000			20.448			-3.408
187000.000			20.448			-3.408
187100.000			20.449			-3.408
187201.000			20.449			-3.408
187301.000			20.448			-3.408
187401.000			20.447			-3.408
187502.000			20.448			-3.408
187600.000			20.449			-3.408
187700.000			20.449			-3.408
187801.000			20.448			-3.408
187900.000			20.447			-3.408
188000.000			20.447			-3.408
188101.000			20.447			-3.408
188200.000			20.447			-3.408
188301.000			20.447			-3.408
188402.000			20.447			-3.408
188501.000			20.448			-3.408
188600.000			20.447			-3.408
188701.000			20.447			-3.408
188800.000			20.446			-3.408
188900.000			20.446			-3.408
189001.000			20.446			-3.408
189100.000			20.447			-3.408
189200.000			20.446			-3.408
189302.000			20.447			-3.408
189401.000			20.446			-3.408
189500.000			20.445			-3.407
189601.000			20.443			-3.407
189700.000			20.444			-3.407
189800.000			20.444			-3.407
189900.000			20.444			-3.407
190000.000			20.444			-3.407
190101.000			20.443			-3.407
190201.000			20.444			-3.407
190301.000			20.444			-3.407
190401.000			20.445			-3.407
190500.000			20.443			-3.407
190600.000			20.442			-3.407
190701.000			20.442			-3.407
190800.000			20.442			-3.407
190900.000			20.442			-3.407
191001.000			20.442			-3.407
191101.000			20.442			-3.407
191201.000			20.442			-3.407
191302.000			20.442			-3.407
191400.000			20.441			-3.407
191500.000			20.440			-3.407
191601.000			20.441			-3.407
191700.000			20.441			-3.407
191800.000			20.440			-3.407
191901.000			20.441			-3.407
192001.000			20.441			-3.407
192101.000			20.441			-3.407
192202.000			20.440			-3.407
192300.000			20.441			-3.407
192400.000			20.440			-3.407
192501.000			20.439			-3.406
192600.000			20.439			-3.407
192700.000			20.439			-3.407
192801.000			20.439			-3.406
192900.000			20.439			-3.406
193002.000			20.439			-3.406
193101.000			20.440			-3.407
193201.000			20.439			-3.407
193301.000			20.438			-3.406
193400.000			20.438			-3.406
193500.000			20.438			-3.406
193601.000			20.438			-3.406
193700.000			20.438			-3.406
193800.000			20.438			-3.406
193902.000			20.438			-3.406
194001.000			20.436			-3.406
194101.000			20.436			-3.406
194201.000			20.436			-3.406
194300.000			20.437			-3.406
194400.000			20.437			-3.406
194501.000			20.437			-3.406
194600.000			20.437			-3.406
194700.000			20.436			-3.406
194802.000			20.436			-3.406
194901.000			20.436			-3.406
195001.000			20.435			-3.406
195101.000			20.436			-3.406
195200.000			20.435			-3.406
195300.000			20.435			-3.406
195401.000			20.435			-3.406
195500.000			20.436			-3.406
195600.000			20.436			-3.406
195701.000			20.435			-3.406
195801.000			20.434			-3.406
195901.000			20.434			-3.406
196001.000			20.433			-3.406
196100.000			20.432			-3.405
196200.000			20.433			-3.406
196300.000			20.432			-3.405
196400.000			20.433			-3.405
196501.000			20.434			-3.406
196600.000			20.434			-3.406
196700.000			20.433			-3.405
196802.000			20.433			-3.405
196901.000			20.432			-3.405
197000.000			20.432			-3.405
197101.000			20.432			-3.405
197200.000			20.432			-3.405
197300.000			20.432			-3.405
197401.000			20.431			-3.405
197500.000			20.431			-3.405
197600.000			20.432			-3.405
197702.000			20.432			-3.405
197801.000			20.432			-3.405
197900.000			20.430			-3.405
198001.000			20.430			-3.405
198100.000			20.430			-3.405
198200.000			20.430			-3.405
198301.000			20.430			-3.405
198400.000			20.431			-3.405
198500.000			20.431			-3.405
198602.000			20.431			-3.405
198701.000			20.430			-3.405
198801.000			20.429			-3.405
198901.000			20.429			-3.405
199000.000			20.429			-3.405
199100.000			20.429			-3.405
199201.000			20.428			-3.405
199300.000			20.427			-3.405
199400.000			20.427			-3.404
199500.000			20.428			-3.405
199601.000			20.427			-3.405
199702.000			20.427			-3.404
199801.000			20.427			-3.404
199900.000			20.426			-3.404
200001.000			20.426			-3.404
200100.000			20.427			-3.405
200200.000			20.427			-3.405
200301.000			20.426			-3.404
200400.000			20.426			-3.404
200501.000			20.427			-3.404
200602.000			20.427			-3.405
200701.000			20.427			-3.405
200800.000			20.427			-3.405
200901.000			20.426			-3.404
201000.000			20.425			-3.404
201100.000			20.425			-3.404
201201.000			20.425			-3.404
201300.000			20.424			-3.404
201401.000			20.424			-3.404
201502.000			20.424			-3.404
201600.000			20.425			-3.404
201700.000			20.425			-3.404
201801.000			20.425			-3.404
201900.000			20.423			-3.404
202000.000			20.424			-3.404
202101.000			20.425			-3.404
202200.000			20.424			-3.404
202301.000			20.424			-3.404
202402.000			20.423			-3.404
202500.000			20.423			-3.404
202600.000			20.422			-3.404
202700.000			20.422			-3.404
202800.000			20.423			-3.404
202901.000			20.423			-3.404
203000.000			20.422			-3.404
203100.000			20.422			-3.404
203202.000			20.421			-3.403
203301.000			20.423			-3.404
203400.000			20.421			-3.404
203501.000			20.422			-3.404
203600.000			20.422			-3.404
203700.000			20.421			-3.404
203801.000			20.420			-3.403
203900.000			20.420			-3.403
204001.000			20.420			-3.403
204102.000			20.420			-3.403
204201.000			20.420			-3.403
204300.000			20.421			-3.404
204401.000			20.422			-3.404
204500.000			20.421			-3.403
204600.000			20.420			-3.403
204701.000			20.420			-3.403
204800.000			20.420			-3.403
204901.000			20.419			-3.403
205002.000			20.419			-3.403
205101.000			20.419			-3.403
205200.000			20.418			-3.403
205301.000			20.418			-3.403
205400.000			20.418			-3.403
205500.000			20.417			-3.403
205601.000			20.418			-3.403
205700.000			20.418			-3.403
205802.000			20.417			-3.403
205901.000			20.417			-3.403
206001.000			20.418			-3.403
206101.000			20.417			-3.403
206200.000			20.417			-3.403
206300.000			20.418			-3.403
206401.000			20.418			-3.403
206500.000			20.417			-3.403
206600.000			20.416			-3.403
206702.000			20.417			-3.403
206801.000			20.416			-3.403
206901.000			20.416			-3.403
207001.000			20.415			-3.402
207100.000			20.416			-3.403
207200.000			20.416			-3.403
207301.000			20.416			-3.403
207400.000			20.415			-3.403
207500.000			20.414			-3.402
207602.000			20.415			-3.403
207701.000			20.415			-3.403
207801.000			20.414			-3.402
207901.000			20.414			-3.402
208000.000			20.414			-3.402
208100.000			20.413			-3.402
208201.000			20.413			-3.402
208300.000			20.414			-3.402
208400.000			20.415			-3.402
208502.000			20.414			-3.402
208601.000			20.414			-3.402
208700.000			20.413			-3.402
208801.000			20.412			-3.402
208900.000			20.413			-3.402
209000.000			20.414			-3.402
209100.000			20.412			-3.402
209200.000			20.412			-3.402
209301.000			20.412			-3.402
209401.000			20.412			-3.402
209501.000			20.413			-3.402
209601.000			20.412			-3.402
209700.000			20.411			-3.402
209800.000			20.412			-3.402
209901.000			20.411			-3.402
210000.000			20.411			-3.402
210100.000			20.411			-3.402
210201.000			20.411			-3.402
210301.000			20.410			-3.402
210401.000			20.410			-3.402
210501.000			20.411			-3.402
210600.000			20.411			-3.402
210700.000			20.410			-3.402
210801.000			20.409			-3.401
210900.000			20.409			-3.401
211000.000			20.409			-3.401
211102.000			20.409			-3.401
211201.000			20.408			-3.401
211301.000			20.409			-3.401
211401.000			20.408			-3.401
211500.000			20.409			-3.401
211600.000			20.409			-3.401
211701.000			20.409			-3.401
211800.000			20.407			-3.401
211900.000			20.407			-3.401
212002.000			20.406			-3.401
212101.000			20.407			-3.401
212200.000			20.407			-3.401
212300.000			20.407			-3.401
212400.000			20.407			-3.401
212501.000			20.407			-3.401
212600.000			20.407			-3.401
212700.000			20.406			-3.401
212801.000			20.406			-3.401
212901.000			20.406			-3.401
213001.000			20.407			-3.401
213101.000			20.406			-3.401
213200.000			20.406			-3.401
213300.000			20.407			-3.401
213401.000			20.406			-3.401
213500.000			20.405			-3.401
213600.000			20.404			-3.401
213701.000			20.406			-3.401
213801.000			20.407			-3.401
213901.000			20.405			-3.401
214001.000			20.405			-3.401
214100.000			20.405			-3.401
214200.000			20.405			-3.401
214301.000			20.404			-3.401
214400.000			20.404			-3.401
214500.000			20.403			-3.400
214601.000			20.402			-3.400
214701.000			20.404			-3.401
214801.000			20.404			-3.401
214901.000			20.402			-3.400
215000.000			20.402			-3.400
215100.000			20.402			-3.400
215201.000			20.403			-3.400
215300.000			20.403			-3.400
215400.000			20.402			-3.400
215500.000			20.403			-3.400
215601.000			20.402			-3.400
215702.000			20.402			-3.400
215800.000			20.401			-3.400
215900.000			20.402			-3.400
216001.000			20.401			-3.400
216100.000			20.403			-3.400
216200.000			20.402			-3.400
216301.000			20.401			-3.400
216400.000			20.401			-3.400
216501.000			20.401			-3.400
216602.000			20.400			-3.400
216700.000			20.400			-3.400
216800.000			20.400			-3.400
216901.000			20.401			-3.400
217000.000			20.402			-3.400
217100.000			20.400			-3.400
217201.000			20.399			-3.400
217300.000			20.399			-3.400
217401.000			20.400			-3.400
217502.000			20.400			-3.400
217600.000			20.398			-3.400
217700.000			20.398			-3.400
217801.000			20.399			-3.400
217900.000			20.400			-3.400
218000.000			20.399			-3.400
218101.000			20.399			-3.400
218200.000			20.399			-3.400
218301.000			20.399			-3.400
218402.000			20.398			-3.400
218501.000			20.398			-3.400
218600.000			20.398			-3.400
218700.000			20.397			-3.400
218800.000			20.397			-3.399
218901.000			20.397			-3.399
219000.000			20.397			-3.399
219100.000			20.397			-3.400
219201.000			20.397			-3.400
219301.000			20.396			-3.399
219401.000			20.396			-3.399
219501.000			20.396			-3.399
219600.000			20.397			-3.399
219700.000			20.396			-3.399
219801.000			20.396			-3.399
219900.000			20.396			-3.399
220000.000			20.396			-3.399
220101.000			20.396			-3.399
220201.000			20.396			-3.399
220301.000			20.395			-3.399
220402.000			20.395			-3.399
220500.000			20.395			-3.399
220600.000			20.394			-3.399
220701.000			20.395			-3.399
220800.000			20.394			-3.399
220900.000			20.393			-3.399
221001.000			20.394			-3.399
221100.000			20.394			-3.399
221201.000			20.393			-3.399
221302.000			20.393			-3.399
221400.000			20.394			-3.399
221500.000			20.394			-3.399
221601.000			20.393			-3.399
221700.000			20.393			-3.399
221800.000			20.393			-3.399
221900.000			20.393			-3.399
222000.000			20.393			-3.399
222102.000			20.393			-3.399
222201.000			20.393			-3.399
222300.000			20.394			-3.399
222401.000			20.393			-3.399
222500.000			20.392			-3.399
222600.000			20.392			-3.399
222701.000			20.392			-3.399
222800.000			20.392			-3.399
222900.000			20.392			-3.399
223002.000			20.391			-3.399
223101.000			20.392			-3.399
223200.000			20.391			-3.399
223301.000			20.391			-3.399
223400.000			20.390			-3.398
223500.000			20.390			-3.398
223601.000			20.391			-3.399
223700.000			20.391			-3.398
223800.000			20.391			-3.398
223902.000			20.390			-3.398
224001.000			20.390			-3.398
224100.000			20.389			-3.398
224201.000			20.388			-3.398
224300.000			20.389			-3.398
224400.000			20.389			-3.398
224501.000			20.389			-3.398
224600.000			20.390			-3.398
224700.000			20.389			-3.398
224802.000			20.389			-3.398
224901.000			20.388			-3.398
225002.000			20.389			-3.398
225100.000			20.388			-3.398
225200.000			20.389			-3.398
225301.000			20.388			-3.398
225400.000			20.388			-3.398
225500.000			20.387			-3.398
225601.000			20.388			-3.398
225700.000			20.388			-3.398
225801.000			20.386			-3.398
225902.000			20.387			-3.398
226000.000			20.386			-3.398
226100.000			20.386			-3.398
226201.000			20.385			-3.398
226300.000			20.385			-3.397
226400.000			20.387			-3.398
226501.000			20.387			-3.398
226600.000			20.386			-3.398
226701.000			20.386			-3.398
226802.000			20.386			-3.398
226901.000			20.385			-3.398
227000.000			20.385			-3.397
227101.000			20.384			-3.397
227200.000			20.383			-3.397
227300.000			20.384			-3.397
227401.000			20.385			-3.398
227500.000			20.384			-3.397
227600.000			20.383			-3.397
227702.000			20.382			-3.397
227801.000			20.384			-3.397
227900.000			20.385			-3.397
228001.000			20.384			-3.397
228100.000			20.383			-3.397
228200.000			20.383			-3.397
228300.000			20.384			-3.397
228400.000			20.384			-3.397
228501.000			20.384			-3.397
228601.000			20.383			-3.397
228701.000			20.383			-3.397
228801.000			20.383			-3.397
228900.000			20.383			-3.397
229000.000			20.383			-3.397
229101.000			20.382			-3.397
229200.000			20.382			-3.397
229300.000			20.382			-3.397
229401.000			20.381			-3.397
229501.000			20.381			-3.397
229601.000			20.381			-3.397
229701.000			20.382			-3.397
229800.000			20.381			-3.397
229900.000			20.381			-3.397
230001.000			20.381			-3.397
230100.000			20.379			-3.397
230200.000			20.380			-3.397
230301.000			20.381			-3.397
230401.000			20.381			-3.397
230501.000			20.380			-3.397
230601.000			20.379			-3.397
230700.000			20.379			-3.397
230800.000			20.379			-3.396
230901.000			20.379			-3.396
231000.000			20.380			-3.397
231100.000			20.380			-3.397
231201.000			20.379			-3.396
231301.000			20.379			-3.396
231402.000			20.380			-3.397
231501.000			20.380			-3.397
231600.000			20.379			-3.396
231701.000			20.378			-3.396
231800.000			20.378			-3.396
231900.000			20.378			-3.396
232001.000			20.378			-3.396
232100.000			20.378			-3.396
232200.000			20.377			-3.396
232302.000			20.377			-3.396
232401.000			20.377			-3.396
232500.000			20.377			-3.396
232601.000			20.377			-3.396
232700.000			20.376			-3.396
232800.000			20.376			-3.396
232901.000			20.376			-3.396
233000.000			20.376			-3.396
233100.000			20.376			-3.396
233202.000			20.377			-3.396
233301.000			20.377			-3.396
233400.000			20.376			-3.396
233501.000			20.376			-3.396
233600.000			20.375			-3.396
233700.000			20.376			-3.396
233801.000			20.375			-3.396
233900.000			20.374			-3.396
234000.000			20.374			-3.396
234102.000			20.375			-3.396
234201.000			20.375			-3.396
234300.000			20.375			-3.396
234401.000			20.374			-3.396
234500.000			20.374			-3.396
234600.000			20.374			-3.396
234700.000			20.374			-3.396
234800.000			20.374			-3.396
234901.000			20.373			-3.396
235001.000			20.373			-3.396
235101.000			20.373			-3.396
235201.000			20.372			-3.395
235300.000			20.372			-3.395
235400.000			20.372			-3.395
235501.000			20.373			-3.395
235600.000			20.373			-3.395
235700.000			20.372			-3.395
235801.000			20.371			-3.395
235901.000			20.371			-3.395
236001.000			20.372			-3.395
236101.000			20.372			-3.395
236200.000			20.371			-3.395
236300.000			20.371			-3.395
236401.000			20.372			-3.395
236500.000			20.373			-3.395
236600.000			20.371			-3.395
236701.000			20.371			-3.395
236801.000			20.371			-3.395
236901.000			20.370			-3.395
237001.000			20.371			-3.395
237100.000			20.371			-3.395
237200.000			20.370			-3.395
237301.000			20.370			-3.395
237400.000			20.370			-3.395
237500.000			20.370			-3.395
237601.000			20.369			-3.395
237701.000			20.369			-3.395
237802.000			20.369			-3.395
237901.000			20.369			-3.395
238000.000			20.369			-3.395
238101.000			20.369			-3.395
238200.000			20.369			-3.395
238300.000			20.368			-3.395
238401.000			20.369			-3.395
238500.000			20.369			-3.395
238600.000			20.368			-3.395
238702.000			20.368			-3.395
238801.000			20.369			-3.395
238900.000			20.368			-3.395
239001.000			20.368			-3.395
239100.000			20.367			-3.395
239200.000			20.367			-3.395
239301.000			20.368			-3.395
239400.000			20.367			-3.395
239500.000			20.368			-3.395
239602.000			20.367			-3.395
239701.000			20.366			-3.394
239801.000			20.366			-3.394
239901.000			20.366			-3.394
240000.000			20.368			-3.395
240100.000			20.367			-3.395
240201.000			20.366			-3.394
240300.000			20.366			-3.394
240400.000			20.365			-3.394
240502.000			20.365			-3.394
240601.000			20.365			-3.394
240701.000			20.365			-3.394
240801.000			20.366			-3.394
240900.000			20.365			-3.394
241000.000			20.365			-3.394
241100.000			20.366			-3.394
241200.000			20.366			-3.394
241301.000			20.366			-3.394
241401.000			20.365			-3.394
241501.000			20.365			-3.394
241602.000			20.365			-3.394
241700.000			20.365			-3.394
241800.000			20.365			-3.394
241901.000			20.364			-3.394
242000.000			20.363			-3.394
242100.000			20.363			-3.394
242201.000			20.362			-3.394
242301.000			20.363			-3.394
242401.000			20.364			-3.394
242502.000			20.363			-3.394
242600.000			20.362			-3.394
242700.000			20.363			-3.394
242801.000			20.363			-3.394
242900.000			20.363			-3.394
243000.000			20.363			-3.394
243101.000			20.362			-3.394
243201.000			20.362			-3.394
243301.000			20.362			-3.394
243402.000			20.362			-3.394
243500.000			20.363			-3.394
243600.000			20.363			-3.394
243701.000			20.361			-3.393
243800.000			20.362			-3.394
243900.000			20.361			-3.393
244001.000			20.360			-3.393
244101.000			20.360			-3.393
244202.000			20.361			-3.393
244301.000			20.361			-3.394
244400.000			20.360			-3.393
244501.000			20.360			-3.393
244600.000			20.359			-3.393
244700.000			20.360			-3.393
244801.000			20.360			-3.393
244900.000			20.360			-3.393
245000.000			20.360			-3.393
245102.000			20.360			-3.393
245201.000			20.359			-3.393
245300.000			20.358			-3.393
245401.000			20.358			-3.393
245500.000			20.359			-3.393
245600.000			20.359			-3.393
245701.000			20.358			-3.393
245800.000			20.358			-3.393
245900.000			20.358			-3.393
246002.000			20.358			-3.393
246101.000			20.357			-3.393
246200.000			20.357			-3.393
246301.000			20.358			-3.393
246400.000			20.358			-3.393
246500.000			20.358			-3.393
246601.000			20.358			-3.393
246700.000			20.358			-3.393
246800.000			20.358			-3.393
246902.000			20.358			-3.393
247001.000			20.356			-3.393
247101.000			20.356			-3.393
247201.000			20.356			-3.393
247300.000			20.355			-3.393
247400.000			20.356			-3.393
247500.000			20.356			-3.393
247600.000			20.356			-3.393
247701.000			20.356			-3.393
247800.000			20.355			-3.393
247901.000			20.354			-3.392
248002.000			20.354			-3.392
248100.000			20.355			-3.393
248200.000			20.354			-3.392
248301.000			20.355			-3.392
248400.000			20.355			-3.393
248500.000			20.356			-3.393
248601.000			20.355			-3.393
248700.000			20.355			-3.392
248801.000			20.353			-3.392
248902.000			20.354			-3.392
249001.000			20.354			-3.392
249100.000			20.353			-3.392
249201.000			20.353			-3.392
249300.000			20.353			-3.392
249400.000			20.353			-3.392
249501.000			20.353			-3.392
249600.000			20.354			-3.392
249700.000			20.354			-3.392
249802.000			20.353			-3.392
249901.000			20.352			-3.392
250000.000			20.353			-3.392
250101.000			20.353			-3.392
250200.000			20.352			-3.392
250300.000			20.352			-3.392
250401.000			20.352			-3.392
250500.000			20.352			-3.392
250600.000			20.351			-3.392
250702.000			20.350			-3.392
250801.000			20.351			-3.392
250901.000			20.352			-3.392
251000.000			20.351			-3.392
251100.000			20.350			-3.392
251201.000			20.350			-3.392
251300.000			20.351			-3.392
251400.000			20.350			-3.392
251502.000			20.350			-3.392
251601.000			20.351			-3.392
251701.000			20.351			-3.392
251801.000			20.351			-3.392
251900.000			20.350			-3.392
252000.000			20.349			-3.391
252101.000			20.349			-3.392
252200.000			20.350			-3.392
252300.000			20.350			-3.392
252402.000			20.350			-3.392
252501.000			20.349			-3.391
252601.000			20.350			-3.392
252701.000			20.349			-3.391
252800.000			20.348			-3.391
252900.000			20.348			-3.391
253001.000			20.349			-3.391
253100.000			20.348			-3.391
253200.000			20.348			-3.391
253301.000			20.348			-3.391
253401.000			20.349			-3.391
253501.000			20.348			-3.391
253601.000			20.348			-3.391
253700.000			20.348			-3.391
253800.000			20.348			-3.391
253900.000			20.347			-3.391
254000.000			20.348			-3.391
254101.000			20.347			-3.391
254200.000			20.347			-3.391
254301.000			20.346			-3.391
254402.000			20.346			-3.391
254500.000			20.347			-3.391
254600.000			20.346			-3.391
254701.000			20.346			-3.391
254800.000			20.347			-3.391
254900.000			20.345			-3.391
255001.000			20.345			-3.391
255100.000			20.346			-3.391
255201.000			20.346			-3.391
255302.000			20.346			-3.391
255400.000			20.345			-3.391
255500.000			20.346			-3.391
255601.000			20.345			-3.391
255700.000			20.345			-3.391
255800.000			20.345			-3.391
255901.000			20.346			-3.391
256000.000			20.345			-3.391
256101.000			20.344			-3.391
256202.000			20.344			-3.391
256301.000			20.345			-3.391
256400.000			20.344			-3.391
256501.000			20.344			-3.391
256600.000			20.344			-3.391
256700.000			20.344			-3.391
256801.000			20.343			-3.390
256900.000			20.343			-3.390
257000.000			20.343			-3.391
257102.000			20.343			-3.391
257201.000			20.343			-3.391
257301.000			20.343			-3.391
257400.000			20.343			-3.391
257500.000			20.343			-3.390
257601.000			20.343			-3.390
257700.000			20.342			-3.390
257800.000			20.342			-3.390
257901.000			20.342			-3.390
258001.000			20.342			-3.390
258101.000			20.342			-3.390
258201.000			20.342			-3.390
258300.000			20.342			-3.390
258400.000			20.341			-3.390
258501.000			20.341			-3.390
258600.000			20.341			-3.390
258700.000			20.341			-3.390
258801.000			20.341			-3.390
258901.000			20.341			-3.390
259001.000			20.341			-3.390
259101.000			20.340			-3.390
259200.000			20.340			-3.390
259300.000			20.340			-3.390
259401.000			20.340			-3.390
259500.000			20.340			-3.390
259600.000			20.340			-3.390
259701.000			20.340			-3.390
259801.000			20.338			-3.390
259901.000			20.339			-3.390
260001.000			20.340			-3.390
260100.000			20.340			-3.390
260200.000			20.340			-3.390
260300.000			20.339			-3.390
260400.000			20.339			-3.390
260501.000			20.339			-3.390
260600.000			20.337			-3.390
260701.000			20.338			-3.390
260802.000			20.339			-3.390
260901.000			20.339			-3.390
261000.000			20.338			-3.390
261101.000			20.338			-3.390
261200.000			20.338			-3.390
261300.000			20.337			-3.390
261401.000			20.339			-3.390
261500.000			20.338			-3.390
261601.000			20.337			-3.389
261702.000			20.337			-3.390
261801.000			20.337			-3.390
261900.000			20.337			-3.389
262001.000			20.337			-3.390
262100.000			20.337			-3.389
262200.000			20.336			-3.389
262301.000			20.336			-3.389
262400.000			20.335			-3.389
262501.000			20.336			-3.389
262602.000			20.336			-3.389
262701.000			20.336			-3.389
262800.000			20.337			-3.390
262901.000			20.336			-3.389
263000.000			20.335			-3.389
263100.000			20.335			-3.389
263201.000			20.335			-3.389
263300.000			20.335			-3.389
263402.000			20.334			-3.389
263501.000			20.334			-3.389
263601.000			20.334			-3.389
263701.000			20.334			-3.389
263800.000			20.335			-3.389
263900.000			20.334			-3.389
264001.000			20.334			-3.389
264100.000			20.334			-3.389
264200.000			20.334			-3.389
264302.000			20.334			-3.389
264401.000			20.334			-3.389
264501.000			20.335			-3.389
264601.000			20.334			-3.389
264700.000			20.334			-3.389
264800.000			20.333			-3.389
264901.000			20.333			-3.389
265000.000			20.333			-3.389
265100.000			20.333			-3.389
265201.000			20.332			-3.389
265301.000			20.331			-3.389
265401.000			20.331			-3.389
265501.000			20.332			-3.389
265600.000			20.332			-3.389
265700.000			20.332			-3.389
265801.000			20.332			-3.389
265900.000			20.331			-3.389
266000.000			20.331			-3.389
266102.000			20.332			-3.389
266201.000			20.331			-3.389
266301.000			20.332			-3.389
266401.000			20.332			-3.389
266500.000			20.332			-3.389
266600.000			20.332			-3.389
266700.000			20.332			-3.389
266800.000			20.331			-3.388
266901.000			20.331			-3.388
267000.000			20.330			-3.388
267101.000			20.331			-3.388
267202.000			20.331			-3.388
267300.000			20.331			-3.388
267400.000			20.330			-3.388
267501.000			20.330			-3.388
267600.000			20.331			-3.388
267700.000			20.330			-3.388
267801.000			20.329			-3.388
267900.000			20.329			-3.388
268001.000			20.329			-3.388
268102.000			20.328			-3.388
268200.000			20.328			-3.388
268300.000			20.328			-3.388
268401.000			20.328			-3.388
268500.000			20.328			-3.388
268600.000			20.328			-3.388
268701.000			20.328			-3.388
268800.000			20.328			-3.388
268901.000			20.329			-3.388
269002.000			20.329			-3.388
269101.000			20.327			-3.388
269200.000			20.327			-3.388
269301.000			20.327			-3.388
269400.000			20.327			-3.388
269500.000			20.328			-3.388
269601.000			20.327			-3.388
269700.000			20.327			-3.388
269800.000			20.327			-3.388
269902.000			20.326			-3.388
270001.000			20.325			-3.388
270101.000			20.325			-3.388
270200.000			20.326			-3.388
270300.000			20.326			-3.388
270401.000			20.326			-3.388
270500.000			20.325			-3.388
270600.000			20.326			-3.388
270701.000			20.326			-3.388
270801.000			20.325			-3.387
270901.000			20.325			-3.387
271001.000			20.325			-3.388
271100.000			20.326			-3.388
271200.000			20.326			-3.388
271301.000			20.325			-3.388
271400.000			20.324			-3.387
271500.000			20.324			-3.387
271601.000			20.325			-3.388
271701.000			20.325			-3.388
271801.000			20.325			-3.387
271901.000			20.325			-3.387
272000.000			20.324			-3.387
272100.000			20.324			-3.387
272201.000			20.325			-3.387
272300.000			20.325			-3.387
272400.000			20.324			-3.387
272501.000			20.324			-3.387
272601.000			20.323			-3.387
272701.000			20.323			-3.387
272801.000			20.324			-3.387
272900.000			20.324			-3.387
273000.000			20.324			-3.387
273100.000			20.322			-3.387
273200.000			20.322			-3.387
273301.000			20.322			-3.387
273401.000			20.322			-3.387
273501.000			20.322			-3.387
273602.000			20.322			-3.387
273700.000			20.322			-3.387
273800.000			20.322			-3.387
273901.000			20.322			-3.387
274000.000			20.322			-3.387
274100.000			20.322			-3.387
274201.000			20.322			-3.387
274301.000			20.322			-3.387
274401.000			20.322			-3.387
274502.000			20.321			-3.387
274600.000			20.321			-3.387
274700.000			20.322			-3.387
274801.000			20.321			-3.387
274900.000			20.321			-3.387
275000.000			20.321			-3.387
275101.000			20.321			-3.387
275201.000			20.321			-3.387
275301.000			20.320			-3.387
275401.000			20.319			-3.386
275500.000			20.320			-3.387
275600.000			20.319			-3.386
275701.000			20.319			-3.387
275800.000			20.320			-3.387
275900.000			20.320			-3.387
276001.000			20.320			-3.387
276100.000			20.320			-3.387
276202.000			20.320			-3.387
276301.000			20.320			-3.387
276400.000			20.319			-3.387
276501.000			20.319			-3.387
276600.000			20.319			-3.387
276700.000			20.318			-3.386
276801.000			20.318			-3.386
276900.000			20.319			-3.386
277000.000			20.319			-3.386
277102.000			20.318			-3.386
277201.000			20.319			-3.386
277300.000			20.317			-3.386
277401.000			20.317			-3.386
277500.000			20.317			-3.386
277600.000			20.317			-3.386
277701.000			20.316			-3.386
277800.000			20.316			-3.386
277900.000			20.317			-3.386
278002.000			20.317			-3.386
278101.000			20.316			-3.386
278201.000			20.316			-3.386
278301.000			20.317			-3.386
278400.000			20.317			-3.386
278500.000			20.316			-3.386
278601.000			20.316			-3.386
278700.000			20.317			-3.386
278800.000			20.317			-3.386
278901.000			20.316			-3.386
279001.000			20.316			-3.386
279101.000			20.317			-3.386
279201.000			20.315			-3.386
279300.000			20.314			-3.386
279400.000			20.314			-3.386
279500.000			20.314			-3.386
279600.000			20.313			-3.386
279701.000			20.313			-3.386
279800.000			20.314			-3.386
279901.000			20.315			-3.386
280002.000			20.314			-3.386
280101.000			20.313			-3.386
280200.000			20.314			-3.386
280301.000			20.315			-3.386
280400.000			20.314			-3.386
280500.000			20.314			-3.386
280601.000			20.314			-3.386
280700.000			20.314			-3.386
280801.000			20.314			-3.386
280902.000			20.314			-3.386
281001.000			20.313			-3.386
281100.000			20.313			-3.386
281201.000			20.314			-3.386
281300.000			20.314			-3.386
281400.000			20.313			-3.386
281501.000			20.312			-3.385
281600.000			20.312			-3.385
281701.000			20.312			-3.385
281802.000			20.312			-3.385
281900.000			20.312			-3.385
282000.000			20.312			-3.385
282101.000			20.312			-3.385
282200.000			20.312			-3.385
282300.000			20.313			-3.385
282401.000			20.312			-3.385
282500.000			20.311			-3.385
282602.000			20.312			-3.385
282701.000			20.312			-3.385
282800.000			20.310			-3.385
282901.000			20.311			-3.385
283000.000			20.310			-3.385
283100.000			20.310			-3.385
283201.000			20.311			-3.385
283300.000			20.311			-3.385
283400.000			20.310			-3.385
283502.000			20.309			-3.385
283601.000			20.309			-3.385
283700.000			20.310			-3.385
283801.000			20.310			-3.385
283900.000			20.310			-3.385
284000.000			20.310			-3.385
284101.000			20.310			-3.385
284200.000			20.309			-3.385
284300.000			20.309			-3.385
284402.000			20.309			-3.385
284501.000			20.309			-3.385
284600.000			20.310			-3.385
284701.000			20.309			-3.385
284800.000			20.308			-3.385
284900.000			20.308			-3.385
285001.000			20.309			-3.385
285100.000			20.308			-3.385
285200.000			20.309			-3.385
285302.000			20.308			-3.385
285401.000			20.308			-3.385
285501.000			20.308			-3.385
285601.000			20.309			-3.385
285700.000			20.307			-3.385
285800.000			20.307			-3.385
285900.000			20.307			-3.384
286000.000			20.307			-3.385
286101.000			20.307			-3.384
286200.000			20.306			-3.384
286301.000			20.306			-3.384
286402.000			20.305			-3.384
286500.000			20.307			-3.385
286600.000			20.307			-3.384
286701.000			20.306			-3.384
286800.000			20.306			-3.384
286900.000			20.305			-3.384
287001.000			20.306			-3.384
287100.000			20.307			-3.384
287201.000			20.306			-3.384
287302.000			20.305			-3.384
287401.000			20.305			-3.384
287500.000			20.305			-3.384
287601.000			20.305			-3.384
287700.000			20.305			-3.384
287800.000			20.306			-3.384
287901.000			20.305			-3.384
288000.000			20.306			-3.384
288100.000			20.305			-3.384
288202.000			20.305			-3.384
288301.000			20.305			-3.384
288400.000			20.305			-3.384
288501.000			20.305			-3.384
288600.000			20.304			-3.384
288700.000			20.304			-3.384
288801.000			20.303			-3.384
288900.000			20.303			-3.384
289000.000			20.303			-3.384
289102.000			20.303			-3.384
289201.000			20.303			-3.384
289301.000			20.303			-3.384
289400.000			20.303			-3.384
289500.000			20.303			-3.384
289601.000			20.303			-3.384
289700.000			20.302			-3.384
289800.000			20.302			-3.384
289901.000			20.302			-3.384
290001.000			20.302			-3.384
290101.000			20.303			-3.384
290201.000			20.302			-3.384
290300.000			20.301			-3.384
290400.000			20.302			-3.384
290501.000			20.301			-3.384
290600.000			20.300			-3.383
290700.000			20.301			-3.384
290801.000			20.301			-3.384
290901.000			20.301			-3.384
291001.000			20.301			-3.384
291101.000			20.301			-3.383
291200.000			20.302			-3.384
291300.000			20.301			-3.384
291401.000			20.301			-3.384
291500.000			20.300			-3.383
291600.000			20.299			-3.383
291702.000			20.299			-3.383
291801.000			20.299			-3.383
291901.000			20.299			-3.383
292001.000			20.299			-3.383
292100.000			20.300			-3.383
292200.000			20.300			-3.383
292300.000			20.301			-3.383
292400.000			20.300			-3.383
292501.000			20.300			-3.383
292600.000			20.299			-3.383
292701.000			20.299			-3.383
292802.000			20.299			-3.383
292901.000			20.298			-3.383
293000.000			20.299			-3.383
293101.000			20.299			-3.383
293200.000			20.299			-3.383
293300.000			20.298			-3.383
293401.000			20.298			-3.383
293500.000			20.299			-3.383
293600.000			20.298			-3.383
293702.000			20.299			-3.383
293801.000			20.299			-3.383
293900.000			20.298			-3.383
294001.000			20.298			-3.383
294100.000			20.298			-3.383
294200.000			20.298			-3.383
294301.000			20.298			-3.383
294400.000			20.297			-3.383
294500.000			20.296			-3.383
294602.000			20.296			-3.383
294701.000			20.297			-3.383
294801.000			20.297			-3.383
294901.000			20.296			-3.383
295000.000			20.296			-3.383
295100.000			20.296			-3.383
295201.000			20.295			-3.383
295300.000			20.296			-3.383
295400.000			20.296			-3.383
295500.000			20.295			-3.383
295601.000			20.295			-3.383
295702.000			20.295			-3.382
295800.000			20.294			-3.382
295900.000			20.295			-3.382
296001.000			20.295			-3.383
296100.000			20.295			-3.382
296200.000			20.295			-3.383
296301.000			20.295			-3.383
296400.000			20.295			-3.382
296501.000			20.295			-3.383
296602.000			20.295			-3.383
296701.000			20.295			-3.382
296800.000			20.294			-3.382
296901.000			20.295			-3.383
297000.000			20.294			-3.382
297100.000			20.295			-3.382
297201.000			20.294			-3.382
297300.000			20.293			-3.382
297400.000			20.294			-3.382
297502.000			20.294			-3.382
297601.000			20.294			-3.382
297701.000			20.294			-3.382
297801.000			20.293			-3.382
297900.000			20.294			-3.382
298000.000			20.293			-3.382
298101.000			20.294			-3.382
298200.000			20.292			-3.382
298300.000			20.292			-3.382
298401.000			20.293			-3.382
298501.000			20.292			-3.382
298602.000			20.292			-3.382
298700.000			20.293			-3.382
298800.000			20.293			-3.382
298901.000			20.293			-3.382
299000.000			20.292			-3.382
299100.000			20.291			-3.382
299201.000			20.291			-3.382
299300.000			20.291			-3.382
299401.000			20.293			-3.382
299502.000			20.292			-3.382
299601.000			20.292			-3.382
299700.000			20.291			-3.382
299801.000			20.291			-3.382
299900.000			20.293			-3.382
