# Acquired on 20/12/2023 11:38:49 
# SPIDER: Creep_-3mm_07714532C-1
# CREEP MEASUREMENT

# time [ms]		force [N]		stiffness [N/mm]
0.000			2.531			-0.844
101.000			2.883			-0.961
201.000			3.039			-1.013
301.000			3.055			-1.018
400.000			3.021			-1.007
500.000			3.010			-1.003
601.000			3.002			-1.001
700.000			2.994			-0.998
801.000			2.987			-0.996
902.000			2.981			-0.994
1000.000			2.975			-0.992
1100.000			2.970			-0.990
1201.000			2.961			-0.987
1300.000			2.957			-0.986
1400.000			2.953			-0.984
1502.000			2.950			-0.983
1601.000			2.947			-0.982
1700.000			2.943			-0.981
1801.000			2.940			-0.980
1900.000			2.934			-0.978
2000.000			2.931			-0.977
2100.000			2.929			-0.976
2200.000			2.928			-0.976
2302.000			2.925			-0.975
2401.000			2.923			-0.974
2500.000			2.921			-0.974
2601.000			2.917			-0.972
2700.000			2.915			-0.972
2800.000			2.914			-0.971
2901.000			2.911			-0.970
3001.000			2.909			-0.970
3101.000			2.907			-0.969
3201.000			2.905			-0.968
3300.000			2.905			-0.968
3400.000			2.900			-0.967
3501.000			2.899			-0.966
3600.000			2.898			-0.966
3700.000			2.897			-0.966
3802.000			2.895			-0.965
3901.000			2.894			-0.965
4000.000			2.894			-0.965
4101.000			2.891			-0.964
4200.000			2.889			-0.963
4300.000			2.887			-0.962
4401.000			2.886			-0.962
4500.000			2.885			-0.962
4601.000			2.885			-0.962
4702.000			2.885			-0.962
4800.000			2.880			-0.960
4900.000			2.880			-0.960
5001.000			2.879			-0.960
5100.000			2.878			-0.959
5200.000			2.876			-0.959
5302.000			2.876			-0.959
5401.000			2.876			-0.959
5501.000			2.874			-0.958
5600.000			2.871			-0.957
5700.000			2.872			-0.957
5801.000			2.870			-0.957
5900.000			2.870			-0.957
6000.000			2.869			-0.956
6102.000			2.868			-0.956
6201.000			2.867			-0.956
6300.000			2.865			-0.955
6401.000			2.863			-0.954
6500.000			2.862			-0.954
6600.000			2.863			-0.954
6701.000			2.862			-0.954
6800.000			2.861			-0.954
6901.000			2.860			-0.953
7002.000			2.859			-0.953
7100.000			2.858			-0.953
7200.000			2.857			-0.952
7301.000			2.856			-0.952
7400.000			2.855			-0.952
7500.000			2.855			-0.952
7601.000			2.854			-0.951
7701.000			2.852			-0.951
7801.000			2.853			-0.951
7901.000			2.852			-0.951
8000.000			2.852			-0.951
8100.000			2.851			-0.950
8201.000			2.850			-0.950
8300.000			2.848			-0.949
8402.000			2.849			-0.950
8501.000			2.848			-0.949
8600.000			2.847			-0.949
8701.000			2.847			-0.949
8800.000			2.846			-0.949
8900.000			2.846			-0.949
9001.000			2.845			-0.948
9100.000			2.843			-0.948
9201.000			2.842			-0.947
9302.000			2.842			-0.947
9400.000			2.842			-0.947
9500.000			2.842			-0.947
9601.000			2.841			-0.947
9700.000			2.840			-0.947
9800.000			2.839			-0.946
9901.000			2.838			-0.946
10001.000			2.838			-0.946
10101.000			2.838			-0.946
10201.000			2.836			-0.945
10300.000			2.836			-0.945
10400.000			2.835			-0.945
10501.000			2.835			-0.945
10600.000			2.834			-0.945
10700.000			2.834			-0.945
10802.000			2.833			-0.944
10901.000			2.833			-0.944
11000.000			2.833			-0.944
11101.000			2.832			-0.944
11200.000			2.831			-0.944
11300.000			2.830			-0.943
11401.000			2.831			-0.944
11500.000			2.829			-0.943
11602.000			2.829			-0.943
11701.000			2.829			-0.943
11800.000			2.829			-0.943
11901.000			2.828			-0.943
12000.000			2.827			-0.942
12100.000			2.826			-0.942
12201.000			2.826			-0.942
12300.000			2.825			-0.942
12401.000			2.824			-0.941
12502.000			2.825			-0.942
12600.000			2.824			-0.941
12700.000			2.824			-0.941
12801.000			2.824			-0.941
12900.000			2.824			-0.941
13000.000			2.822			-0.941
13101.000			2.821			-0.940
13201.000			2.822			-0.941
13301.000			2.821			-0.940
13401.000			2.820			-0.940
13500.000			2.820			-0.940
13600.000			2.820			-0.940
13701.000			2.820			-0.940
13800.000			2.819			-0.940
13900.000			2.818			-0.939
14002.000			2.818			-0.939
14101.000			2.818			-0.939
14200.000			2.817			-0.939
14301.000			2.817			-0.939
14400.000			2.816			-0.939
14500.000			2.816			-0.939
14601.000			2.815			-0.938
14701.000			2.815			-0.938
14802.000			2.814			-0.938
14901.000			2.814			-0.938
15000.000			2.815			-0.938
15101.000			2.813			-0.938
15200.000			2.813			-0.938
15300.000			2.814			-0.938
15401.000			2.811			-0.937
15501.000			2.810			-0.937
15601.000			2.811			-0.937
15702.000			2.811			-0.937
15800.000			2.811			-0.937
15900.000			2.810			-0.937
16001.000			2.809			-0.936
16100.000			2.809			-0.936
16200.000			2.808			-0.936
16302.000			2.808			-0.936
16401.000			2.808			-0.936
16501.000			2.809			-0.936
16601.000			2.808			-0.936
16700.000			2.808			-0.936
16800.000			2.808			-0.936
16901.000			2.806			-0.935
17000.000			2.805			-0.935
17100.000			2.805			-0.935
17202.000			2.806			-0.935
17301.000			2.805			-0.935
17400.000			2.806			-0.935
17501.000			2.805			-0.935
17600.000			2.805			-0.935
17700.000			2.804			-0.935
17801.000			2.804			-0.935
17900.000			2.804			-0.935
18002.000			2.804			-0.935
18101.000			2.803			-0.934
18200.000			2.803			-0.934
18301.000			2.803			-0.934
18400.000			2.802			-0.934
18500.000			2.801			-0.934
18601.000			2.801			-0.934
18701.000			2.800			-0.933
18801.000			2.800			-0.933
18901.000			2.800			-0.933
19000.000			2.800			-0.933
19100.000			2.800			-0.933
19201.000			2.799			-0.933
19300.000			2.799			-0.933
19400.000			2.798			-0.933
19501.000			2.797			-0.932
19601.000			2.798			-0.933
19701.000			2.797			-0.932
19801.000			2.797			-0.932
19900.000			2.797			-0.932
20000.000			2.796			-0.932
20101.000			2.796			-0.932
20200.000			2.797			-0.932
20300.000			2.796			-0.932
20402.000			2.796			-0.932
20501.000			2.795			-0.932
20600.000			2.794			-0.931
20701.000			2.795			-0.932
20800.000			2.794			-0.931
20900.000			2.794			-0.931
21001.000			2.794			-0.931
21100.000			2.795			-0.932
21202.000			2.795			-0.932
21301.000			2.794			-0.931
21400.000			2.793			-0.931
21501.000			2.793			-0.931
21600.000			2.792			-0.931
21700.000			2.792			-0.931
21801.000			2.792			-0.931
21900.000			2.791			-0.930
22001.000			2.791			-0.930
22102.000			2.791			-0.930
22200.000			2.790			-0.930
22300.000			2.790			-0.930
22401.000			2.790			-0.930
22500.000			2.790			-0.930
22600.000			2.790			-0.930
22701.000			2.789			-0.930
22801.000			2.790			-0.930
22901.000			2.790			-0.930
23001.000			2.789			-0.930
23100.000			2.788			-0.929
23200.000			2.787			-0.929
23301.000			2.787			-0.929
23400.000			2.788			-0.929
23500.000			2.787			-0.929
23602.000			2.787			-0.929
23701.000			2.788			-0.929
23800.000			2.787			-0.929
23901.000			2.787			-0.929
24000.000			2.786			-0.929
24100.000			2.786			-0.929
24201.000			2.786			-0.929
24300.000			2.785			-0.928
24402.000			2.785			-0.928
24501.000			2.786			-0.929
24600.000			2.786			-0.929
24701.000			2.784			-0.928
24800.000			2.784			-0.928
24900.000			2.783			-0.928
25001.000			2.784			-0.928
25100.000			2.785			-0.928
25200.000			2.784			-0.928
25302.000			2.783			-0.928
25401.000			2.783			-0.928
25500.000			2.783			-0.928
25601.000			2.783			-0.928
25700.000			2.783			-0.928
25800.000			2.783			-0.928
25901.000			2.782			-0.927
26000.000			2.782			-0.927
26101.000			2.782			-0.927
26202.000			2.782			-0.927
26300.000			2.781			-0.927
26400.000			2.781			-0.927
26501.000			2.780			-0.927
26600.000			2.780			-0.927
26700.000			2.780			-0.927
26801.000			2.780			-0.927
26901.000			2.780			-0.927
27001.000			2.780			-0.927
27101.000			2.780			-0.927
27200.000			2.779			-0.926
27300.000			2.778			-0.926
27401.000			2.779			-0.926
27500.000			2.780			-0.927
27600.000			2.778			-0.926
27702.000			2.778			-0.926
27801.000			2.778			-0.926
27901.000			2.778			-0.926
28000.000			2.778			-0.926
28100.000			2.778			-0.926
28201.000			2.777			-0.926
28300.000			2.776			-0.925
28400.000			2.776			-0.925
28501.000			2.776			-0.925
28601.000			2.776			-0.925
28701.000			2.775			-0.925
28801.000			2.776			-0.925
28900.000			2.775			-0.925
29000.000			2.775			-0.925
29101.000			2.774			-0.925
29200.000			2.774			-0.925
29300.000			2.774			-0.925
29402.000			2.773			-0.924
29501.000			2.774			-0.925
29600.000			2.774			-0.925
29701.000			2.773			-0.924
29800.000			2.774			-0.925
29900.000			2.772			-0.924
30001.000			2.772			-0.924
30100.000			2.772			-0.924
30201.000			2.772			-0.924
30302.000			2.772			-0.924
30400.000			2.772			-0.924
30500.000			2.771			-0.924
30601.000			2.772			-0.924
30700.000			2.772			-0.924
30800.000			2.772			-0.924
30900.000			2.772			-0.924
31001.000			2.772			-0.924
31102.000			2.772			-0.924
31200.000			2.771			-0.924
31300.000			2.771			-0.924
31401.000			2.770			-0.923
31500.000			2.769			-0.923
31600.000			2.769			-0.923
31701.000			2.769			-0.923
31801.000			2.769			-0.923
31901.000			2.768			-0.923
32001.000			2.769			-0.923
32100.000			2.769			-0.923
32200.000			2.769			-0.923
32301.000			2.768			-0.923
32400.000			2.768			-0.923
32500.000			2.769			-0.923
32602.000			2.768			-0.923
32701.000			2.767			-0.922
32800.000			2.768			-0.923
32901.000			2.767			-0.922
33000.000			2.767			-0.922
33100.000			2.768			-0.923
33201.000			2.767			-0.922
33300.000			2.766			-0.922
33401.000			2.766			-0.922
33502.000			2.767			-0.922
33600.000			2.766			-0.922
33700.000			2.765			-0.922
33801.000			2.767			-0.922
33900.000			2.766			-0.922
34000.000			2.766			-0.922
34100.000			2.765			-0.922
34200.000			2.765			-0.922
34302.000			2.767			-0.922
34401.000			2.766			-0.922
34500.000			2.764			-0.921
34601.000			2.766			-0.922
34700.000			2.766			-0.922
34800.000			2.765			-0.922
34901.000			2.764			-0.921
35000.000			2.763			-0.921
35101.000			2.764			-0.921
35202.000			2.764			-0.921
35300.000			2.765			-0.922
35400.000			2.764			-0.921
35501.000			2.764			-0.921
35600.000			2.763			-0.921
35700.000			2.763			-0.921
35801.000			2.763			-0.921
35901.000			2.763			-0.921
36001.000			2.764			-0.921
36101.000			2.763			-0.921
36200.000			2.762			-0.921
36300.000			2.762			-0.921
36401.000			2.762			-0.921
36500.000			2.762			-0.921
36600.000			2.761			-0.920
36702.000			2.761			-0.920
36801.000			2.761			-0.920
36900.000			2.761			-0.920
37001.000			2.761			-0.920
37100.000			2.760			-0.920
37200.000			2.760			-0.920
37300.000			2.760			-0.920
37400.000			2.761			-0.920
37502.000			2.761			-0.920
37601.000			2.761			-0.920
37700.000			2.761			-0.920
37801.000			2.760			-0.920
37900.000			2.760			-0.920
38000.000			2.759			-0.920
38101.000			2.759			-0.920
38200.000			2.759			-0.920
38301.000			2.760			-0.920
38402.000			2.759			-0.920
38500.000			2.759			-0.920
38600.000			2.759			-0.920
38701.000			2.759			-0.920
38800.000			2.759			-0.920
38900.000			2.759			-0.920
39001.000			2.758			-0.919
39101.000			2.758			-0.919
39201.000			2.758			-0.919
39302.000			2.757			-0.919
39400.000			2.758			-0.919
39500.000			2.757			-0.919
39601.000			2.757			-0.919
39700.000			2.757			-0.919
39800.000			2.757			-0.919
39901.000			2.757			-0.919
40001.000			2.756			-0.919
40101.000			2.757			-0.919
40201.000			2.756			-0.919
40300.000			2.756			-0.919
40400.000			2.756			-0.919
40500.000			2.756			-0.919
40600.000			2.756			-0.919
40701.000			2.755			-0.918
40801.000			2.755			-0.918
40901.000			2.755			-0.918
41001.000			2.754			-0.918
41100.000			2.754			-0.918
41200.000			2.755			-0.918
41301.000			2.754			-0.918
41400.000			2.755			-0.918
41500.000			2.756			-0.919
41602.000			2.754			-0.918
41701.000			2.754			-0.918
41800.000			2.754			-0.918
41901.000			2.754			-0.918
42000.000			2.753			-0.918
42100.000			2.753			-0.918
42201.000			2.754			-0.918
42300.000			2.753			-0.918
42401.000			2.753			-0.918
42502.000			2.753			-0.918
42600.000			2.752			-0.917
42700.000			2.752			-0.917
42801.000			2.753			-0.918
42900.000			2.752			-0.917
43000.000			2.751			-0.917
43101.000			2.751			-0.917
43201.000			2.751			-0.917
43301.000			2.752			-0.917
43401.000			2.751			-0.917
43500.000			2.751			-0.917
43600.000			2.751			-0.917
43700.000			2.751			-0.917
43800.000			2.751			-0.917
43901.000			2.751			-0.917
44001.000			2.751			-0.917
44101.000			2.751			-0.917
44201.000			2.751			-0.917
44300.000			2.751			-0.917
44400.000			2.752			-0.917
44501.000			2.751			-0.917
44600.000			2.749			-0.916
44700.000			2.749			-0.916
44802.000			2.750			-0.917
44901.000			2.750			-0.917
45000.000			2.750			-0.917
45101.000			2.750			-0.917
45200.000			2.749			-0.916
45300.000			2.749			-0.916
45401.000			2.749			-0.916
45500.000			2.750			-0.917
45601.000			2.750			-0.917
45702.000			2.749			-0.916
45800.000			2.749			-0.916
45900.000			2.750			-0.917
46001.000			2.748			-0.916
46100.000			2.748			-0.916
46200.000			2.748			-0.916
46301.000			2.748			-0.916
46401.000			2.748			-0.916
46501.000			2.747			-0.916
46601.000			2.747			-0.916
46700.000			2.748			-0.916
46800.000			2.747			-0.916
46900.000			2.746			-0.915
47000.000			2.747			-0.916
47101.000			2.747			-0.916
47201.000			2.747			-0.916
47301.000			2.747			-0.916
47401.000			2.747			-0.916
47500.000			2.746			-0.915
47600.000			2.747			-0.916
47701.000			2.747			-0.916
47800.000			2.747			-0.916
47900.000			2.747			-0.916
48002.000			2.746			-0.915
48101.000			2.745			-0.915
48201.000			2.745			-0.915
48301.000			2.745			-0.915
48400.000			2.746			-0.915
48500.000			2.746			-0.915
48601.000			2.746			-0.915
48700.000			2.746			-0.915
48800.000			2.744			-0.915
48902.000			2.743			-0.914
49001.000			2.744			-0.915
49100.000			2.744			-0.915
49201.000			2.744			-0.915
49300.000			2.743			-0.914
49400.000			2.744			-0.915
49501.000			2.745			-0.915
49600.000			2.744			-0.915
49701.000			2.744			-0.915
49802.000			2.744			-0.915
49900.000			2.744			-0.915
50000.000			2.743			-0.914
50100.000			2.742			-0.914
50200.000			2.743			-0.914
50301.000			2.744			-0.915
50400.000			2.744			-0.915
50501.000			2.742			-0.914
50602.000			2.742			-0.914
50700.000			2.742			-0.914
50800.000			2.743			-0.914
50901.000			2.742			-0.914
51000.000			2.741			-0.914
51100.000			2.742			-0.914
51201.000			2.742			-0.914
51301.000			2.742			-0.914
51401.000			2.742			-0.914
51501.000			2.742			-0.914
51600.000			2.742			-0.914
51700.000			2.742			-0.914
51801.000			2.741			-0.914
51900.000			2.742			-0.914
52000.000			2.741			-0.914
52102.000			2.741			-0.914
52201.000			2.740			-0.913
52300.000			2.740			-0.913
52401.000			2.740			-0.913
52500.000			2.741			-0.914
52600.000			2.740			-0.913
52701.000			2.740			-0.913
52801.000			2.740			-0.913
52901.000			2.740			-0.913
53002.000			2.740			-0.913
53100.000			2.741			-0.914
53200.000			2.741			-0.914
53300.000			2.740			-0.913
53400.000			2.740			-0.913
53501.000			2.739			-0.913
53600.000			2.739			-0.913
53701.000			2.739			-0.913
53802.000			2.740			-0.913
53900.000			2.739			-0.913
54000.000			2.739			-0.913
54101.000			2.739			-0.913
54200.000			2.739			-0.913
54300.000			2.738			-0.913
54401.000			2.738			-0.913
54501.000			2.739			-0.913
54601.000			2.739			-0.913
54701.000			2.738			-0.913
54800.000			2.738			-0.913
54900.000			2.738			-0.913
55001.000			2.738			-0.913
55100.000			2.737			-0.912
55200.000			2.737			-0.912
55302.000			2.738			-0.913
55401.000			2.738			-0.913
55500.000			2.737			-0.912
55601.000			2.738			-0.913
55700.000			2.738			-0.913
55800.000			2.737			-0.912
55901.000			2.738			-0.913
56000.000			2.737			-0.912
56101.000			2.737			-0.912
56202.000			2.737			-0.912
56300.000			2.736			-0.912
56400.000			2.737			-0.912
56500.000			2.736			-0.912
56600.000			2.736			-0.912
56701.000			2.736			-0.912
56800.000			2.737			-0.912
56901.000			2.737			-0.912
57002.000			2.736			-0.912
57100.000			2.735			-0.912
57200.000			2.736			-0.912
57301.000			2.736			-0.912
57400.000			2.737			-0.912
57500.000			2.736			-0.912
57601.000			2.736			-0.912
57701.000			2.735			-0.912
57801.000			2.735			-0.912
57902.000			2.734			-0.911
58000.000			2.734			-0.911
58100.000			2.735			-0.912
58201.000			2.735			-0.912
58300.000			2.734			-0.911
58400.000			2.734			-0.911
58501.000			2.734			-0.911
58601.000			2.734			-0.911
58701.000			2.734			-0.911
58801.000			2.734			-0.911
58900.000			2.734			-0.911
59000.000			2.734			-0.911
59101.000			2.734			-0.911
59200.000			2.734			-0.911
59300.000			2.733			-0.911
59402.000			2.734			-0.911
59501.000			2.734			-0.911
59600.000			2.734			-0.911
59700.000			2.733			-0.911
59800.000			2.734			-0.911
59901.000			2.733			-0.911
60000.000			2.733			-0.911
60100.000			2.733			-0.911
60202.000			2.733			-0.911
60301.000			2.733			-0.911
60400.000			2.733			-0.911
60501.000			2.732			-0.911
60600.000			2.732			-0.911
60700.000			2.733			-0.911
60801.000			2.732			-0.911
60900.000			2.731			-0.910
61001.000			2.731			-0.910
61102.000			2.732			-0.911
61200.000			2.732			-0.911
61300.000			2.732			-0.911
61401.000			2.732			-0.911
61500.000			2.731			-0.910
61600.000			2.732			-0.911
61701.000			2.731			-0.910
61801.000			2.731			-0.910
61901.000			2.731			-0.910
62001.000			2.731			-0.910
62100.000			2.732			-0.911
62200.000			2.732			-0.911
62301.000			2.732			-0.911
62400.000			2.732			-0.911
62500.000			2.731			-0.910
62602.000			2.731			-0.910
62701.000			2.730			-0.910
62800.000			2.731			-0.910
62900.000			2.730			-0.910
63000.000			2.730			-0.910
63101.000			2.730			-0.910
63200.000			2.730			-0.910
63300.000			2.730			-0.910
63402.000			2.730			-0.910
63501.000			2.729			-0.910
63600.000			2.729			-0.910
63701.000			2.729			-0.910
63800.000			2.730			-0.910
63900.000			2.731			-0.910
64001.000			2.729			-0.910
64100.000			2.728			-0.909
64201.000			2.729			-0.910
64302.000			2.729			-0.910
64400.000			2.728			-0.909
64500.000			2.728			-0.909
64601.000			2.728			-0.909
64700.000			2.728			-0.909
64800.000			2.728			-0.909
64901.000			2.728			-0.909
65001.000			2.728			-0.909
65101.000			2.728			-0.909
65201.000			2.728			-0.909
65300.000			2.728			-0.909
65400.000			2.728			-0.909
65501.000			2.727			-0.909
65600.000			2.727			-0.909
65700.000			2.727			-0.909
65802.000			2.727			-0.909
65901.000			2.726			-0.909
66002.000			2.726			-0.909
66100.000			2.726			-0.909
66200.000			2.727			-0.909
66301.000			2.727			-0.909
66400.000			2.727			-0.909
66500.000			2.727			-0.909
66601.000			2.727			-0.909
66701.000			2.727			-0.909
66801.000			2.727			-0.909
66901.000			2.727			-0.909
67000.000			2.726			-0.909
67100.000			2.726			-0.909
67201.000			2.726			-0.909
67300.000			2.726			-0.909
67400.000			2.726			-0.909
67502.000			2.726			-0.909
67601.000			2.726			-0.909
67700.000			2.726			-0.909
67801.000			2.726			-0.909
67900.000			2.725			-0.908
68000.000			2.726			-0.909
68101.000			2.726			-0.909
68200.000			2.725			-0.908
68300.000			2.726			-0.909
68402.000			2.726			-0.909
68501.000			2.725			-0.908
68600.000			2.725			-0.908
68701.000			2.726			-0.909
68800.000			2.725			-0.908
68900.000			2.725			-0.908
69001.000			2.725			-0.908
69100.000			2.724			-0.908
69202.000			2.724			-0.908
69301.000			2.724			-0.908
69400.000			2.724			-0.908
69501.000			2.725			-0.908
69600.000			2.725			-0.908
69700.000			2.724			-0.908
69801.000			2.724			-0.908
69900.000			2.723			-0.908
70001.000			2.724			-0.908
70102.000			2.723			-0.908
70200.000			2.723			-0.908
70300.000			2.724			-0.908
70401.000			2.724			-0.908
70500.000			2.723			-0.908
70600.000			2.723			-0.908
70701.000			2.723			-0.908
70801.000			2.722			-0.907
70901.000			2.723			-0.908
71001.000			2.723			-0.908
71100.000			2.722			-0.907
71200.000			2.723			-0.908
71301.000			2.723			-0.908
71400.000			2.723			-0.908
71500.000			2.724			-0.908
71602.000			2.723			-0.908
71701.000			2.722			-0.907
71801.000			2.722			-0.907
71901.000			2.722			-0.907
72000.000			2.722			-0.907
72100.000			2.722			-0.907
72201.000			2.722			-0.907
72300.000			2.722			-0.907
72400.000			2.722			-0.907
72502.000			2.722			-0.907
72601.000			2.721			-0.907
72701.000			2.721			-0.907
72800.000			2.723			-0.908
72900.000			2.722			-0.907
73001.000			2.721			-0.907
73100.000			2.722			-0.907
73200.000			2.721			-0.907
73302.000			2.720			-0.907
73401.000			2.722			-0.907
73500.000			2.721			-0.907
73601.000			2.720			-0.907
73700.000			2.721			-0.907
73800.000			2.721			-0.907
73901.000			2.721			-0.907
74000.000			2.721			-0.907
74101.000			2.722			-0.907
74202.000			2.721			-0.907
74300.000			2.720			-0.907
74400.000			2.721			-0.907
74501.000			2.721			-0.907
74600.000			2.720			-0.907
74700.000			2.719			-0.906
74801.000			2.718			-0.906
74901.000			2.719			-0.906
75001.000			2.719			-0.906
75101.000			2.720			-0.907
75200.000			2.720			-0.907
75300.000			2.721			-0.907
75401.000			2.720			-0.907
75500.000			2.719			-0.906
75600.000			2.719			-0.906
75702.000			2.720			-0.907
75801.000			2.719			-0.906
75901.000			2.720			-0.907
76000.000			2.720			-0.907
76100.000			2.719			-0.906
76201.000			2.718			-0.906
76300.000			2.718			-0.906
76400.000			2.718			-0.906
76502.000			2.718			-0.906
76601.000			2.719			-0.906
76701.000			2.719			-0.906
76801.000			2.718			-0.906
76900.000			2.719			-0.906
77000.000			2.719			-0.906
77101.000			2.718			-0.906
77200.000			2.718			-0.906
77300.000			2.718			-0.906
77402.000			2.718			-0.906
77501.000			2.718			-0.906
77600.000			2.718			-0.906
77701.000			2.717			-0.906
77800.000			2.718			-0.906
77900.000			2.718			-0.906
78001.000			2.719			-0.906
78100.000			2.719			-0.906
78201.000			2.717			-0.906
78302.000			2.717			-0.906
78401.000			2.717			-0.906
78500.000			2.716			-0.905
78601.000			2.716			-0.905
78700.000			2.716			-0.905
78800.000			2.717			-0.906
78900.000			2.718			-0.906
79000.000			2.718			-0.906
79102.000			2.716			-0.905
79201.000			2.716			-0.905
79300.000			2.716			-0.905
79401.000			2.716			-0.905
79500.000			2.715			-0.905
79600.000			2.717			-0.906
79701.000			2.716			-0.905
79800.000			2.714			-0.905
79901.000			2.715			-0.905
80002.000			2.715			-0.905
80100.000			2.715			-0.905
80200.000			2.715			-0.905
80301.000			2.715			-0.905
80400.000			2.716			-0.905
80500.000			2.716			-0.905
80601.000			2.716			-0.905
80701.000			2.716			-0.905
80801.000			2.716			-0.905
80901.000			2.716			-0.905
81000.000			2.715			-0.905
81100.000			2.715			-0.905
81201.000			2.715			-0.905
81300.000			2.715			-0.905
81400.000			2.716			-0.905
81502.000			2.715			-0.905
81601.000			2.715			-0.905
81700.000			2.715			-0.905
81801.000			2.715			-0.905
81900.000			2.714			-0.905
82000.000			2.715			-0.905
82100.000			2.714			-0.905
82200.000			2.715			-0.905
82302.000			2.715			-0.905
82401.000			2.714			-0.905
82500.000			2.714			-0.905
82601.000			2.714			-0.905
82700.000			2.714			-0.905
82800.000			2.715			-0.905
82901.000			2.714			-0.905
83000.000			2.714			-0.905
83101.000			2.713			-0.904
83202.000			2.713			-0.904
83300.000			2.713			-0.904
83400.000			2.712			-0.904
83501.000			2.713			-0.904
83600.000			2.714			-0.905
83700.000			2.714			-0.905
83801.000			2.713			-0.904
83901.000			2.713			-0.904
84001.000			2.713			-0.904
84101.000			2.713			-0.904
84200.000			2.713			-0.904
84300.000			2.713			-0.904
84401.000			2.712			-0.904
84500.000			2.712			-0.904
84600.000			2.713			-0.904
84702.000			2.713			-0.904
84801.000			2.712			-0.904
84900.000			2.712			-0.904
85001.000			2.712			-0.904
85100.000			2.712			-0.904
85200.000			2.712			-0.904
85300.000			2.712			-0.904
85400.000			2.713			-0.904
85502.000			2.714			-0.905
85601.000			2.713			-0.904
85701.000			2.712			-0.904
85801.000			2.712			-0.904
85900.000			2.713			-0.904
86000.000			2.712			-0.904
86101.000			2.711			-0.904
86200.000			2.712			-0.904
86300.000			2.712			-0.904
86402.000			2.711			-0.904
86501.000			2.711			-0.904
86600.000			2.710			-0.903
86701.000			2.711			-0.904
86800.000			2.711			-0.904
86900.000			2.711			-0.904
87001.000			2.711			-0.904
87100.000			2.711			-0.904
87201.000			2.711			-0.904
87302.000			2.710			-0.903
87400.000			2.711			-0.904
87500.000			2.711			-0.904
87601.000			2.711			-0.904
87700.000			2.712			-0.904
87800.000			2.710			-0.903
87901.000			2.710			-0.903
88001.000			2.709			-0.903
88101.000			2.710			-0.903
88201.000			2.710			-0.903
88300.000			2.710			-0.903
88400.000			2.710			-0.903
88500.000			2.709			-0.903
88600.000			2.709			-0.903
88701.000			2.710			-0.903
88801.000			2.711			-0.904
88901.000			2.709			-0.903
89002.000			2.709			-0.903
89100.000			2.709			-0.903
89200.000			2.710			-0.903
89301.000			2.710			-0.903
89400.000			2.710			-0.903
89500.000			2.709			-0.903
89601.000			2.709			-0.903
89701.000			2.709			-0.903
89801.000			2.709			-0.903
89901.000			2.709			-0.903
90000.000			2.709			-0.903
90100.000			2.710			-0.903
90201.000			2.709			-0.903
90300.000			2.709			-0.903
90400.000			2.708			-0.903
90502.000			2.707			-0.902
90601.000			2.708			-0.903
90700.000			2.709			-0.903
90801.000			2.709			-0.903
90900.000			2.708			-0.903
91000.000			2.708			-0.903
91101.000			2.708			-0.903
91200.000			2.708			-0.903
91301.000			2.708			-0.903
91402.000			2.708			-0.903
91500.000			2.708			-0.903
91600.000			2.707			-0.902
91700.000			2.707			-0.902
91800.000			2.707			-0.902
91901.000			2.707			-0.902
92000.000			2.707			-0.902
92100.000			2.707			-0.902
92202.000			2.708			-0.903
92301.000			2.708			-0.903
92400.000			2.708			-0.903
92501.000			2.708			-0.903
92600.000			2.708			-0.903
92700.000			2.707			-0.902
92801.000			2.707			-0.902
92900.000			2.708			-0.903
93001.000			2.707			-0.902
93102.000			2.707			-0.902
93200.000			2.707			-0.902
93300.000			2.708			-0.903
93401.000			2.707			-0.902
93500.000			2.707			-0.902
93600.000			2.707			-0.902
93701.000			2.706			-0.902
93801.000			2.707			-0.902
93901.000			2.706			-0.902
94001.000			2.707			-0.902
94100.000			2.707			-0.902
94200.000			2.706			-0.902
94301.000			2.706			-0.902
94400.000			2.705			-0.902
94500.000			2.705			-0.902
94602.000			2.705			-0.902
94701.000			2.705			-0.902
94800.000			2.706			-0.902
94900.000			2.707			-0.902
95000.000			2.706			-0.902
95101.000			2.706			-0.902
95200.000			2.706			-0.902
95300.000			2.705			-0.902
95402.000			2.705			-0.902
95501.000			2.706			-0.902
95600.000			2.705			-0.902
95701.000			2.705			-0.902
95800.000			2.705			-0.902
95900.000			2.705			-0.902
96001.000			2.705			-0.902
96100.000			2.705			-0.902
96200.000			2.705			-0.902
96302.000			2.705			-0.902
96401.000			2.704			-0.901
96500.000			2.704			-0.901
96601.000			2.704			-0.901
96700.000			2.705			-0.902
96800.000			2.706			-0.902
96901.000			2.705			-0.902
97000.000			2.705			-0.902
97101.000			2.705			-0.902
97202.000			2.705			-0.902
97300.000			2.704			-0.901
97400.000			2.703			-0.901
97501.000			2.703			-0.901
97600.000			2.704			-0.901
97700.000			2.703			-0.901
97801.000			2.704			-0.901
97901.000			2.704			-0.901
98002.000			2.705			-0.902
98101.000			2.705			-0.902
98200.000			2.704			-0.901
98301.000			2.704			-0.901
98400.000			2.705			-0.902
98500.000			2.704			-0.901
98601.000			2.703			-0.901
98701.000			2.703			-0.901
98801.000			2.703			-0.901
98902.000			2.704			-0.901
99000.000			2.704			-0.901
99100.000			2.703			-0.901
99201.000			2.703			-0.901
99300.000			2.702			-0.901
99400.000			2.703			-0.901
99501.000			2.703			-0.901
99601.000			2.703			-0.901
99701.000			2.704			-0.901
99801.000			2.704			-0.901
99900.000			2.703			-0.901
100000.000			2.703			-0.901
100101.000			2.703			-0.901
100200.000			2.703			-0.901
100300.000			2.703			-0.901
100402.000			2.703			-0.901
100501.000			2.703			-0.901
100600.000			2.703			-0.901
100701.000			2.703			-0.901
100800.000			2.703			-0.901
100900.000			2.702			-0.901
101001.000			2.702			-0.901
101100.000			2.702			-0.901
101200.000			2.702			-0.901
101302.000			2.702			-0.901
101401.000			2.703			-0.901
101501.000			2.702			-0.901
101600.000			2.702			-0.901
101700.000			2.701			-0.900
101801.000			2.702			-0.901
101900.000			2.701			-0.900
102000.000			2.701			-0.900
102102.000			2.701			-0.900
102201.000			2.702			-0.901
102300.000			2.702			-0.901
102401.000			2.701			-0.900
102500.000			2.701			-0.900
102600.000			2.700			-0.900
102701.000			2.700			-0.900
102800.000			2.701			-0.900
102901.000			2.701			-0.900
103002.000			2.701			-0.900
103100.000			2.701			-0.900
103200.000			2.701			-0.900
103301.000			2.700			-0.900
103400.000			2.701			-0.900
103500.000			2.701			-0.900
103601.000			2.701			-0.900
103701.000			2.701			-0.900
103801.000			2.701			-0.900
103901.000			2.700			-0.900
104000.000			2.701			-0.900
104100.000			2.701			-0.900
104201.000			2.700			-0.900
104300.000			2.699			-0.900
104400.000			2.700			-0.900
104502.000			2.700			-0.900
104601.000			2.700			-0.900
104701.000			2.700			-0.900
104800.000			2.699			-0.900
104900.000			2.699			-0.900
105001.000			2.699			-0.900
105100.000			2.699			-0.900
105200.000			2.700			-0.900
105302.000			2.699			-0.900
105401.000			2.698			-0.899
105501.000			2.699			-0.900
105601.000			2.699			-0.900
105700.000			2.700			-0.900
105800.000			2.700			-0.900
105901.000			2.699			-0.900
106000.000			2.698			-0.899
106100.000			2.699			-0.900
106202.000			2.698			-0.899
106301.000			2.698			-0.899
106400.000			2.698			-0.899
106501.000			2.698			-0.899
106600.000			2.698			-0.899
106700.000			2.698			-0.899
106801.000			2.698			-0.899
106900.000			2.698			-0.899
107000.000			2.697			-0.899
107102.000			2.698			-0.899
107201.000			2.697			-0.899
107300.000			2.698			-0.899
107401.000			2.698			-0.899
107500.000			2.698			-0.899
107600.000			2.697			-0.899
107700.000			2.697			-0.899
107800.000			2.697			-0.899
107901.000			2.699			-0.900
108001.000			2.697			-0.899
108101.000			2.697			-0.899
108201.000			2.697			-0.899
108300.000			2.696			-0.899
108400.000			2.697			-0.899
108501.000			2.698			-0.899
108600.000			2.698			-0.899
108700.000			2.698			-0.899
108801.000			2.698			-0.899
108901.000			2.697			-0.899
109001.000			2.697			-0.899
109101.000			2.696			-0.899
109200.000			2.698			-0.899
109300.000			2.697			-0.899
109401.000			2.697			-0.899
109500.000			2.696			-0.899
109600.000			2.696			-0.899
109701.000			2.697			-0.899
109801.000			2.697			-0.899
109901.000			2.697			-0.899
110001.000			2.697			-0.899
110100.000			2.697			-0.899
110200.000			2.696			-0.899
110301.000			2.696			-0.899
110400.000			2.697			-0.899
110500.000			2.697			-0.899
110601.000			2.696			-0.899
110701.000			2.696			-0.899
110802.000			2.696			-0.899
110900.000			2.697			-0.899
111000.000			2.696			-0.899
111101.000			2.696			-0.899
111200.000			2.696			-0.899
111300.000			2.696			-0.899
111401.000			2.696			-0.899
111501.000			2.695			-0.898
111601.000			2.696			-0.899
111702.000			2.695			-0.898
111800.000			2.696			-0.899
111900.000			2.696			-0.899
112001.000			2.695			-0.898
112100.000			2.695			-0.898
112200.000			2.695			-0.898
112301.000			2.694			-0.898
112401.000			2.695			-0.898
112501.000			2.696			-0.899
112601.000			2.695			-0.898
112700.000			2.693			-0.898
112800.000			2.696			-0.899
112901.000			2.696			-0.899
113000.000			2.695			-0.898
113100.000			2.694			-0.898
113202.000			2.694			-0.898
113301.000			2.693			-0.898
113401.000			2.694			-0.898
113501.000			2.694			-0.898
113600.000			2.694			-0.898
113700.000			2.694			-0.898
113801.000			2.694			-0.898
113900.000			2.693			-0.898
114000.000			2.694			-0.898
114102.000			2.695			-0.898
114201.000			2.694			-0.898
114301.000			2.695			-0.898
114400.000			2.693			-0.898
114500.000			2.693			-0.898
114601.000			2.694			-0.898
114700.000			2.694			-0.898
114800.000			2.693			-0.898
114901.000			2.693			-0.898
115001.000			2.693			-0.898
115101.000			2.693			-0.898
115201.000			2.694			-0.898
115300.000			2.694			-0.898
115400.000			2.693			-0.898
115501.000			2.694			-0.898
115600.000			2.694			-0.898
115700.000			2.693			-0.898
115801.000			2.693			-0.898
115901.000			2.693			-0.898
116001.000			2.693			-0.898
116101.000			2.694			-0.898
116200.000			2.693			-0.898
116300.000			2.693			-0.898
116401.000			2.693			-0.898
116500.000			2.692			-0.897
116600.000			2.691			-0.897
116702.000			2.692			-0.897
116801.000			2.692			-0.897
116901.000			2.692			-0.897
117001.000			2.692			-0.897
117100.000			2.692			-0.897
117200.000			2.693			-0.898
117300.000			2.692			-0.897
117400.000			2.692			-0.897
117501.000			2.693			-0.898
117601.000			2.693			-0.898
117701.000			2.692			-0.897
117801.000			2.692			-0.897
117900.000			2.692			-0.897
118000.000			2.692			-0.897
118101.000			2.692			-0.897
118200.000			2.692			-0.897
118300.000			2.691			-0.897
118401.000			2.692			-0.897
118501.000			2.692			-0.897
118601.000			2.692			-0.897
118701.000			2.692			-0.897
118800.000			2.691			-0.897
118900.000			2.691			-0.897
119001.000			2.691			-0.897
119100.000			2.692			-0.897
119200.000			2.691			-0.897
119301.000			2.692			-0.897
119401.000			2.691			-0.897
119501.000			2.690			-0.897
119601.000			2.690			-0.897
119700.000			2.690			-0.897
119800.000			2.690			-0.897
119901.000			2.690			-0.897
120000.000			2.690			-0.897
120100.000			2.690			-0.897
120202.000			2.691			-0.897
120301.000			2.692			-0.897
120400.000			2.692			-0.897
120500.000			2.691			-0.897
120600.000			2.692			-0.897
120701.000			2.692			-0.897
120800.000			2.691			-0.897
120900.000			2.690			-0.897
121002.000			2.689			-0.896
121101.000			2.691			-0.897
121201.000			2.691			-0.897
121301.000			2.691			-0.897
121400.000			2.690			-0.897
121500.000			2.690			-0.897
121601.000			2.690			-0.897
121700.000			2.691			-0.897
121800.000			2.690			-0.897
121902.000			2.691			-0.897
122001.000			2.691			-0.897
122100.000			2.690			-0.897
122201.000			2.690			-0.897
122300.000			2.690			-0.897
122400.000			2.690			-0.897
122501.000			2.691			-0.897
122600.000			2.690			-0.897
122701.000			2.689			-0.896
122802.000			2.690			-0.897
122901.000			2.690			-0.897
123000.000			2.690			-0.897
123101.000			2.690			-0.897
123200.000			2.691			-0.897
123300.000			2.690			-0.897
123401.000			2.689			-0.896
123500.000			2.690			-0.897
123602.000			2.690			-0.897
123701.000			2.690			-0.897
123801.000			2.690			-0.897
123901.000			2.688			-0.896
124000.000			2.689			-0.896
124100.000			2.689			-0.896
124201.000			2.689			-0.896
124300.000			2.688			-0.896
124400.000			2.687			-0.896
124502.000			2.688			-0.896
124601.000			2.689			-0.896
124700.000			2.689			-0.896
124801.000			2.688			-0.896
124900.000			2.689			-0.896
125000.000			2.689			-0.896
125101.000			2.689			-0.896
125200.000			2.690			-0.897
125300.000			2.688			-0.896
125402.000			2.688			-0.896
125501.000			2.689			-0.896
125600.000			2.689			-0.896
125701.000			2.688			-0.896
125800.000			2.688			-0.896
125900.000			2.689			-0.896
126001.000			2.688			-0.896
126100.000			2.687			-0.896
126200.000			2.687			-0.896
126302.000			2.687			-0.896
126401.000			2.688			-0.896
126500.000			2.687			-0.896
126601.000			2.688			-0.896
126700.000			2.688			-0.896
126800.000			2.688			-0.896
126900.000			2.687			-0.896
127000.000			2.687			-0.896
127101.000			2.688			-0.896
127201.000			2.687			-0.896
127301.000			2.687			-0.896
127401.000			2.687			-0.896
127500.000			2.688			-0.896
127600.000			2.688			-0.896
127701.000			2.688			-0.896
127800.000			2.687			-0.896
127900.000			2.687			-0.896
128002.000			2.687			-0.896
128101.000			2.688			-0.896
128201.000			2.687			-0.896
128301.000			2.687			-0.896
128400.000			2.687			-0.896
128500.000			2.688			-0.896
128601.000			2.687			-0.896
128700.000			2.687			-0.896
128800.000			2.688			-0.896
128902.000			2.686			-0.895
129001.000			2.687			-0.896
129100.000			2.687			-0.896
129201.000			2.687			-0.896
129300.000			2.686			-0.895
129400.000			2.686			-0.895
129501.000			2.686			-0.895
129600.000			2.686			-0.895
129700.000			2.686			-0.895
129802.000			2.686			-0.895
129901.000			2.686			-0.895
130000.000			2.687			-0.896
130100.000			2.687			-0.896
130200.000			2.686			-0.895
130301.000			2.687			-0.896
130400.000			2.687			-0.896
130500.000			2.687			-0.896
130601.000			2.687			-0.896
130701.000			2.686			-0.895
130801.000			2.686			-0.895
130901.000			2.686			-0.895
131000.000			2.686			-0.895
131100.000			2.686			-0.895
131201.000			2.686			-0.895
131300.000			2.686			-0.895
131400.000			2.686			-0.895
131501.000			2.686			-0.895
131601.000			2.687			-0.896
131701.000			2.687			-0.896
131801.000			2.685			-0.895
131900.000			2.685			-0.895
132000.000			2.686			-0.895
132101.000			2.685			-0.895
132200.000			2.686			-0.895
132300.000			2.686			-0.895
132401.000			2.686			-0.895
132501.000			2.686			-0.895
132601.000			2.686			-0.895
132701.000			2.686			-0.895
132800.000			2.685			-0.895
132900.000			2.685			-0.895
133001.000			2.686			-0.895
133100.000			2.686			-0.895
133200.000			2.684			-0.895
133300.000			2.684			-0.895
133401.000			2.684			-0.895
133502.000			2.684			-0.895
133601.000			2.685			-0.895
133700.000			2.685			-0.895
133801.000			2.684			-0.895
133900.000			2.684			-0.895
134000.000			2.685			-0.895
134101.000			2.685			-0.895
134200.000			2.685			-0.895
134300.000			2.684			-0.895
134402.000			2.684			-0.895
134501.000			2.684			-0.895
134600.000			2.684			-0.895
134701.000			2.684			-0.895
134800.000			2.684			-0.895
134900.000			2.684			-0.895
135001.000			2.684			-0.895
135100.000			2.684			-0.895
135200.000			2.684			-0.895
135302.000			2.684			-0.895
135401.000			2.684			-0.895
135501.000			2.682			-0.894
135601.000			2.683			-0.894
135700.000			2.684			-0.895
135800.000			2.683			-0.894
135901.000			2.682			-0.894
136000.000			2.683			-0.894
136100.000			2.682			-0.894
136201.000			2.683			-0.894
136301.000			2.683			-0.894
136402.000			2.683			-0.894
136500.000			2.683			-0.894
136600.000			2.683			-0.894
136701.000			2.683			-0.894
136800.000			2.683			-0.894
136900.000			2.683			-0.894
137001.000			2.681			-0.894
137100.000			2.683			-0.894
137201.000			2.682			-0.894
137302.000			2.682			-0.894
137401.000			2.682			-0.894
137500.000			2.683			-0.894
137601.000			2.683			-0.894
137700.000			2.682			-0.894
137800.000			2.682			-0.894
137901.000			2.681			-0.894
138000.000			2.683			-0.894
138100.000			2.682			-0.894
138202.000			2.682			-0.894
138301.000			2.683			-0.894
138400.000			2.681			-0.894
138501.000			2.681			-0.894
138600.000			2.681			-0.894
138700.000			2.681			-0.894
138801.000			2.681			-0.894
138900.000			2.681			-0.894
139000.000			2.682			-0.894
139102.000			2.682			-0.894
139201.000			2.682			-0.894
139301.000			2.681			-0.894
139401.000			2.682			-0.894
139500.000			2.681			-0.894
139600.000			2.682			-0.894
139700.000			2.680			-0.893
139800.000			2.680			-0.893
139901.000			2.681			-0.894
140000.000			2.681			-0.894
140101.000			2.681			-0.894
140202.000			2.680			-0.893
140300.000			2.680			-0.893
140400.000			2.680			-0.893
140501.000			2.681			-0.894
140600.000			2.681			-0.894
140700.000			2.681			-0.894
140801.000			2.681			-0.894
140900.000			2.681			-0.894
141001.000			2.681			-0.894
141102.000			2.681			-0.894
141201.000			2.681			-0.894
141300.000			2.680			-0.893
141401.000			2.680			-0.893
141500.000			2.680			-0.893
141600.000			2.681			-0.894
141701.000			2.681			-0.894
141800.000			2.681			-0.894
141900.000			2.681			-0.894
142002.000			2.680			-0.893
142101.000			2.681			-0.894
142200.000			2.679			-0.893
142301.000			2.680			-0.893
142400.000			2.679			-0.893
142500.000			2.680			-0.893
142601.000			2.681			-0.894
142700.000			2.680			-0.893
142800.000			2.679			-0.893
142902.000			2.679			-0.893
143001.000			2.680			-0.893
143101.000			2.680			-0.893
143200.000			2.679			-0.893
143300.000			2.680			-0.893
143401.000			2.680			-0.893
143500.000			2.679			-0.893
143600.000			2.680			-0.893
143701.000			2.680			-0.893
143801.000			2.680			-0.893
143901.000			2.680			-0.893
144002.000			2.679			-0.893
144100.000			2.679			-0.893
144200.000			2.680			-0.893
144301.000			2.679			-0.893
144400.000			2.680			-0.893
144500.000			2.679			-0.893
144601.000			2.679			-0.893
144700.000			2.679			-0.893
144801.000			2.679			-0.893
144902.000			2.679			-0.893
145001.000			2.678			-0.893
145100.000			2.678			-0.893
145201.000			2.679			-0.893
145300.000			2.678			-0.893
145400.000			2.678			-0.893
145501.000			2.679			-0.893
145600.000			2.678			-0.893
145700.000			2.679			-0.893
145802.000			2.678			-0.893
145901.000			2.679			-0.893
146000.000			2.679			-0.893
146100.000			2.678			-0.893
146200.000			2.678			-0.893
146301.000			2.677			-0.892
146400.000			2.678			-0.893
146500.000			2.678			-0.893
146601.000			2.679			-0.893
146701.000			2.678			-0.893
146801.000			2.679			-0.893
146902.000			2.679			-0.893
147000.000			2.679			-0.893
147100.000			2.678			-0.893
147201.000			2.678			-0.893
147300.000			2.678			-0.893
147400.000			2.679			-0.893
147501.000			2.679			-0.893
147600.000			2.678			-0.893
147700.000			2.678			-0.893
147802.000			2.678			-0.893
147901.000			2.679			-0.893
148000.000			2.678			-0.893
148101.000			2.677			-0.892
148200.000			2.676			-0.892
148300.000			2.677			-0.892
148401.000			2.678			-0.893
148500.000			2.678			-0.893
148600.000			2.678			-0.893
148702.000			2.677			-0.892
148801.000			2.677			-0.892
148901.000			2.677			-0.892
149001.000			2.677			-0.892
149100.000			2.678			-0.893
149200.000			2.678			-0.893
149300.000			2.676			-0.892
149400.000			2.678			-0.893
149501.000			2.678			-0.893
149600.000			2.677			-0.892
149701.000			2.677			-0.892
149802.000			2.677			-0.892
149901.000			2.677			-0.892
150000.000			2.677			-0.892
150101.000			2.677			-0.892
150200.000			2.677			-0.892
150300.000			2.677			-0.892
150401.000			2.677			-0.892
150500.000			2.677			-0.892
150600.000			2.676			-0.892
150702.000			2.677			-0.892
150801.000			2.677			-0.892
150900.000			2.677			-0.892
151001.000			2.677			-0.892
151100.000			2.676			-0.892
151200.000			2.676			-0.892
151301.000			2.676			-0.892
151400.000			2.675			-0.892
151500.000			2.676			-0.892
151602.000			2.676			-0.892
151701.000			2.676			-0.892
151801.000			2.676			-0.892
151901.000			2.676			-0.892
152000.000			2.676			-0.892
152100.000			2.677			-0.892
152201.000			2.676			-0.892
152300.000			2.675			-0.892
152400.000			2.676			-0.892
152500.000			2.676			-0.892
152601.000			2.676			-0.892
152702.000			2.676			-0.892
152800.000			2.676			-0.892
152900.000			2.676			-0.892
153001.000			2.676			-0.892
153100.000			2.676			-0.892
153200.000			2.676			-0.892
153301.000			2.675			-0.892
153400.000			2.676			-0.892
153501.000			2.676			-0.892
153602.000			2.676			-0.892
153701.000			2.676			-0.892
153800.000			2.676			-0.892
153901.000			2.676			-0.892
154000.000			2.675			-0.892
154100.000			2.675			-0.892
154201.000			2.675			-0.892
154300.000			2.676			-0.892
154400.000			2.675			-0.892
154502.000			2.675			-0.892
154601.000			2.675			-0.892
154701.000			2.676			-0.892
154801.000			2.676			-0.892
154900.000			2.676			-0.892
155000.000			2.675			-0.892
155101.000			2.675			-0.892
155200.000			2.674			-0.891
155300.000			2.675			-0.892
155401.000			2.675			-0.892
155501.000			2.674			-0.891
155602.000			2.674			-0.891
155700.000			2.675			-0.892
155800.000			2.675			-0.892
155901.000			2.674			-0.891
156000.000			2.675			-0.892
156100.000			2.675			-0.892
156201.000			2.674			-0.891
156300.000			2.675			-0.892
156401.000			2.675			-0.892
156502.000			2.676			-0.892
156601.000			2.675			-0.892
156700.000			2.674			-0.891
156801.000			2.674			-0.891
156900.000			2.675			-0.892
157000.000			2.674			-0.891
157101.000			2.674			-0.891
157200.000			2.675			-0.892
157300.000			2.675			-0.892
157402.000			2.676			-0.892
157501.000			2.675			-0.892
157600.000			2.674			-0.891
157701.000			2.674			-0.891
157800.000			2.674			-0.891
157900.000			2.674			-0.891
158001.000			2.674			-0.891
158100.000			2.675			-0.892
158200.000			2.674			-0.891
158302.000			2.673			-0.891
158401.000			2.674			-0.891
158501.000			2.674			-0.891
158601.000			2.674			-0.891
158700.000			2.673			-0.891
158800.000			2.673			-0.891
158900.000			2.674			-0.891
159000.000			2.673			-0.891
159101.000			2.674			-0.891
159200.000			2.673			-0.891
159301.000			2.674			-0.891
159402.000			2.674			-0.891
159501.000			2.674			-0.891
159600.000			2.674			-0.891
159701.000			2.673			-0.891
159800.000			2.673			-0.891
159900.000			2.673			-0.891
160001.000			2.674			-0.891
160100.000			2.673			-0.891
160200.000			2.673			-0.891
160302.000			2.674			-0.891
160401.000			2.674			-0.891
160500.000			2.673			-0.891
160601.000			2.673			-0.891
160700.000			2.673			-0.891
160800.000			2.674			-0.891
160901.000			2.673			-0.891
161000.000			2.672			-0.891
161100.000			2.673			-0.891
161202.000			2.673			-0.891
161301.000			2.673			-0.891
161401.000			2.672			-0.891
161501.000			2.672			-0.891
161600.000			2.673			-0.891
161700.000			2.672			-0.891
161801.000			2.673			-0.891
161900.000			2.674			-0.891
162000.000			2.673			-0.891
162102.000			2.673			-0.891
162201.000			2.672			-0.891
162302.000			2.672			-0.891
162400.000			2.673			-0.891
162500.000			2.672			-0.891
162601.000			2.673			-0.891
162700.000			2.673			-0.891
162800.000			2.672			-0.891
162901.000			2.672			-0.891
163000.000			2.672			-0.891
163101.000			2.671			-0.890
163202.000			2.672			-0.891
163300.000			2.672			-0.891
163400.000			2.672			-0.891
163501.000			2.672			-0.891
163600.000			2.673			-0.891
163700.000			2.673			-0.891
163801.000			2.672			-0.891
163900.000			2.671			-0.890
164001.000			2.672			-0.891
164102.000			2.672			-0.891
164201.000			2.672			-0.891
164300.000			2.672			-0.891
164401.000			2.673			-0.891
164500.000			2.672			-0.891
164600.000			2.672			-0.891
164701.000			2.672			-0.891
164800.000			2.673			-0.891
164900.000			2.672			-0.891
165002.000			2.671			-0.890
165101.000			2.672			-0.891
165200.000			2.671			-0.890
165300.000			2.671			-0.890
165400.000			2.672			-0.891
165501.000			2.671			-0.890
165600.000			2.671			-0.890
165700.000			2.670			-0.890
165801.000			2.670			-0.890
165901.000			2.670			-0.890
166001.000			2.671			-0.890
166102.000			2.672			-0.891
166200.000			2.670			-0.890
166300.000			2.671			-0.890
166401.000			2.671			-0.890
166500.000			2.671			-0.890
166600.000			2.670			-0.890
166701.000			2.669			-0.890
166800.000			2.670			-0.890
166901.000			2.670			-0.890
167002.000			2.670			-0.890
167101.000			2.671			-0.890
167200.000			2.671			-0.890
167301.000			2.671			-0.890
167400.000			2.670			-0.890
167500.000			2.670			-0.890
167601.000			2.672			-0.891
167700.000			2.671			-0.890
167800.000			2.670			-0.890
167902.000			2.670			-0.890
168001.000			2.670			-0.890
168100.000			2.670			-0.890
168201.000			2.670			-0.890
168300.000			2.670			-0.890
168400.000			2.670			-0.890
168500.000			2.670			-0.890
168600.000			2.670			-0.890
168701.000			2.669			-0.890
168801.000			2.670			-0.890
168901.000			2.670			-0.890
169002.000			2.670			-0.890
169100.000			2.670			-0.890
169200.000			2.670			-0.890
169301.000			2.670			-0.890
169400.000			2.670			-0.890
169500.000			2.670			-0.890
169601.000			2.670			-0.890
169700.000			2.670			-0.890
169801.000			2.671			-0.890
169902.000			2.671			-0.890
170001.000			2.671			-0.890
170100.000			2.670			-0.890
170201.000			2.669			-0.890
170300.000			2.670			-0.890
170400.000			2.670			-0.890
170501.000			2.670			-0.890
170600.000			2.669			-0.890
170700.000			2.669			-0.890
170802.000			2.669			-0.890
170901.000			2.669			-0.890
171000.000			2.669			-0.890
171101.000			2.669			-0.890
171200.000			2.669			-0.890
171300.000			2.669			-0.890
171401.000			2.670			-0.890
171500.000			2.670			-0.890
171600.000			2.669			-0.890
171702.000			2.669			-0.890
171801.000			2.670			-0.890
171902.000			2.671			-0.890
172000.000			2.668			-0.889
172100.000			2.669			-0.890
172201.000			2.669			-0.890
172300.000			2.669			-0.890
172400.000			2.669			-0.890
172501.000			2.668			-0.889
172600.000			2.668			-0.889
172701.000			2.668			-0.889
172802.000			2.669			-0.890
172901.000			2.669			-0.890
173000.000			2.668			-0.889
173101.000			2.667			-0.889
173200.000			2.668			-0.889
173300.000			2.669			-0.890
173401.000			2.670			-0.890
173500.000			2.669			-0.890
173600.000			2.669			-0.890
173702.000			2.668			-0.889
173801.000			2.668			-0.889
173900.000			2.668			-0.889
174001.000			2.669			-0.890
174100.000			2.669			-0.890
174200.000			2.668			-0.889
174301.000			2.667			-0.889
174400.000			2.668			-0.889
174500.000			2.668			-0.889
174601.000			2.667			-0.889
174701.000			2.667			-0.889
174802.000			2.667			-0.889
174900.000			2.668			-0.889
175000.000			2.667			-0.889
175101.000			2.667			-0.889
175200.000			2.668			-0.889
175300.000			2.668			-0.889
175401.000			2.667			-0.889
175500.000			2.667			-0.889
175600.000			2.667			-0.889
175702.000			2.667			-0.889
175801.000			2.667			-0.889
175900.000			2.667			-0.889
176001.000			2.667			-0.889
176100.000			2.667			-0.889
176200.000			2.667			-0.889
176301.000			2.668			-0.889
176400.000			2.667			-0.889
176500.000			2.667			-0.889
176602.000			2.667			-0.889
176701.000			2.666			-0.889
176801.000			2.667			-0.889
176901.000			2.667			-0.889
177000.000			2.666			-0.889
177100.000			2.667			-0.889
177201.000			2.666			-0.889
177300.000			2.666			-0.889
177400.000			2.665			-0.888
177501.000			2.666			-0.889
177601.000			2.666			-0.889
177701.000			2.666			-0.889
177802.000			2.667			-0.889
177900.000			2.665			-0.888
178000.000			2.667			-0.889
178100.000			2.666			-0.889
178200.000			2.666			-0.889
178301.000			2.666			-0.889
178400.000			2.667			-0.889
178500.000			2.667			-0.889
178602.000			2.667			-0.889
178701.000			2.667			-0.889
178801.000			2.667			-0.889
178901.000			2.667			-0.889
179000.000			2.666			-0.889
179100.000			2.666			-0.889
179201.000			2.666			-0.889
179300.000			2.667			-0.889
179400.000			2.666			-0.889
179501.000			2.667			-0.889
179601.000			2.666			-0.889
179701.000			2.666			-0.889
179802.000			2.666			-0.889
179900.000			2.666			-0.889
180000.000			2.666			-0.889
180101.000			2.666			-0.889
180200.000			2.667			-0.889
180300.000			2.666			-0.889
180401.000			2.665			-0.888
180500.000			2.665			-0.888
180601.000			2.665			-0.888
180702.000			2.665			-0.888
180801.000			2.666			-0.889
180900.000			2.666			-0.889
181001.000			2.667			-0.889
181100.000			2.666			-0.889
181200.000			2.667			-0.889
181300.000			2.666			-0.889
181400.000			2.665			-0.888
181501.000			2.666			-0.889
181601.000			2.666			-0.889
181701.000			2.665			-0.888
181801.000			2.665			-0.888
181900.000			2.666			-0.889
182000.000			2.665			-0.888
182101.000			2.664			-0.888
182200.000			2.664			-0.888
182300.000			2.666			-0.889
182401.000			2.666			-0.889
182501.000			2.666			-0.889
182601.000			2.665			-0.888
182702.000			2.665			-0.888
182800.000			2.665			-0.888
182900.000			2.665			-0.888
183001.000			2.665			-0.888
183100.000			2.665			-0.888
183200.000			2.665			-0.888
183301.000			2.665			-0.888
183400.000			2.664			-0.888
183501.000			2.665			-0.888
183602.000			2.665			-0.888
183701.000			2.665			-0.888
183800.000			2.665			-0.888
183901.000			2.664			-0.888
184000.000			2.664			-0.888
184100.000			2.665			-0.888
184201.000			2.665			-0.888
184300.000			2.666			-0.889
184400.000			2.665			-0.888
184502.000			2.665			-0.888
184601.000			2.665			-0.888
184701.000			2.664			-0.888
184800.000			2.665			-0.888
184900.000			2.664			-0.888
185001.000			2.664			-0.888
185100.000			2.665			-0.888
185200.000			2.664			-0.888
185301.000			2.664			-0.888
185401.000			2.664			-0.888
185501.000			2.664			-0.888
185602.000			2.663			-0.888
185700.000			2.663			-0.888
185800.000			2.664			-0.888
185901.000			2.664			-0.888
186000.000			2.664			-0.888
186100.000			2.665			-0.888
186201.000			2.665			-0.888
186300.000			2.663			-0.888
186401.000			2.664			-0.888
186502.000			2.664			-0.888
186601.000			2.664			-0.888
186700.000			2.664			-0.888
186801.000			2.664			-0.888
186900.000			2.664			-0.888
187000.000			2.663			-0.888
187101.000			2.663			-0.888
187200.000			2.663			-0.888
187300.000			2.663			-0.888
187402.000			2.663			-0.888
187501.000			2.664			-0.888
187600.000			2.664			-0.888
187700.000			2.663			-0.888
187800.000			2.663			-0.888
187901.000			2.664			-0.888
188000.000			2.663			-0.888
188100.000			2.663			-0.888
188201.000			2.663			-0.888
188300.000			2.664			-0.888
188401.000			2.663			-0.888
188502.000			2.663			-0.888
188600.000			2.664			-0.888
188700.000			2.663			-0.888
188801.000			2.663			-0.888
188900.000			2.663			-0.888
189000.000			2.663			-0.888
189101.000			2.663			-0.888
189200.000			2.663			-0.888
189300.000			2.663			-0.888
189402.000			2.663			-0.888
189501.000			2.663			-0.888
189600.000			2.662			-0.887
189701.000			2.663			-0.888
189800.000			2.663			-0.888
189900.000			2.662			-0.887
190001.000			2.663			-0.888
190100.000			2.664			-0.888
190200.000			2.663			-0.888
190302.000			2.663			-0.888
190401.000			2.662			-0.887
190501.000			2.662			-0.887
190601.000			2.662			-0.887
190700.000			2.663			-0.888
190800.000			2.662			-0.887
190900.000			2.662			-0.887
191000.000			2.663			-0.888
191101.000			2.663			-0.888
191200.000			2.662			-0.887
191301.000			2.662			-0.887
191402.000			2.662			-0.887
191501.000			2.662			-0.887
191600.000			2.662			-0.887
191701.000			2.662			-0.887
191800.000			2.663			-0.888
191900.000			2.662			-0.887
192001.000			2.662			-0.887
192100.000			2.663			-0.888
192200.000			2.661			-0.887
192302.000			2.662			-0.887
192401.000			2.662			-0.887
192500.000			2.662			-0.887
192601.000			2.661			-0.887
192700.000			2.661			-0.887
192800.000			2.661			-0.887
192901.000			2.661			-0.887
193000.000			2.661			-0.887
193100.000			2.661			-0.887
193202.000			2.662			-0.887
193301.000			2.661			-0.887
193400.000			2.661			-0.887
193501.000			2.661			-0.887
193600.000			2.661			-0.887
193700.000			2.661			-0.887
193801.000			2.661			-0.887
193900.000			2.662			-0.887
194000.000			2.661			-0.887
194102.000			2.662			-0.887
194201.000			2.660			-0.887
194302.000			2.661			-0.887
194400.000			2.661			-0.887
194500.000			2.662			-0.887
194601.000			2.661			-0.887
194700.000			2.661			-0.887
194800.000			2.660			-0.887
194901.000			2.660			-0.887
195000.000			2.661			-0.887
195101.000			2.662			-0.887
195202.000			2.661			-0.887
195301.000			2.661			-0.887
195400.000			2.660			-0.887
195501.000			2.660			-0.887
195600.000			2.659			-0.886
195700.000			2.661			-0.887
195801.000			2.662			-0.887
195900.000			2.661			-0.887
196000.000			2.661			-0.887
196102.000			2.661			-0.887
196201.000			2.661			-0.887
196300.000			2.660			-0.887
196401.000			2.659			-0.886
196500.000			2.661			-0.887
196600.000			2.662			-0.887
196701.000			2.661			-0.887
196800.000			2.661			-0.887
196900.000			2.660			-0.887
197002.000			2.660			-0.887
197101.000			2.662			-0.887
197202.000			2.661			-0.887
197300.000			2.661			-0.887
197400.000			2.660			-0.887
197501.000			2.659			-0.886
197600.000			2.660			-0.887
197700.000			2.660			-0.887
197801.000			2.661			-0.887
197900.000			2.660			-0.887
198001.000			2.660			-0.887
198102.000			2.660			-0.887
198201.000			2.660			-0.887
198300.000			2.660			-0.887
198401.000			2.660			-0.887
198500.000			2.660			-0.887
198600.000			2.660			-0.887
198701.000			2.660			-0.887
198800.000			2.660			-0.887
198900.000			2.661			-0.887
199002.000			2.660			-0.887
199101.000			2.660			-0.887
199201.000			2.660			-0.887
199301.000			2.660			-0.887
199400.000			2.660			-0.887
199500.000			2.659			-0.886
199601.000			2.660			-0.887
199700.000			2.660			-0.887
199800.000			2.659			-0.886
199901.000			2.659			-0.886
200001.000			2.660			-0.887
200101.000			2.660			-0.887
200202.000			2.659			-0.886
200300.000			2.659			-0.886
200400.000			2.659			-0.886
200500.000			2.659			-0.886
200600.000			2.658			-0.886
200701.000			2.658			-0.886
200800.000			2.658			-0.886
200900.000			2.658			-0.886
201002.000			2.658			-0.886
201101.000			2.660			-0.887
201200.000			2.660			-0.887
201301.000			2.659			-0.886
201400.000			2.658			-0.886
201500.000			2.660			-0.887
201601.000			2.660			-0.887
201700.000			2.659			-0.886
201800.000			2.659			-0.886
201902.000			2.659			-0.886
202001.000			2.659			-0.886
202101.000			2.659			-0.886
202201.000			2.659			-0.886
202300.000			2.658			-0.886
202400.000			2.658			-0.886
202501.000			2.658			-0.886
202600.000			2.658			-0.886
202700.000			2.658			-0.886
202802.000			2.658			-0.886
202901.000			2.659			-0.886
203001.000			2.659			-0.886
203101.000			2.658			-0.886
203200.000			2.657			-0.886
203300.000			2.658			-0.886
203401.000			2.659			-0.886
203500.000			2.658			-0.886
203600.000			2.658			-0.886
203700.000			2.658			-0.886
203801.000			2.658			-0.886
203902.000			2.658			-0.886
204000.000			2.658			-0.886
204100.000			2.659			-0.886
204201.000			2.657			-0.886
204300.000			2.658			-0.886
204400.000			2.659			-0.886
204501.000			2.658			-0.886
204600.000			2.659			-0.886
204701.000			2.658			-0.886
204802.000			2.656			-0.885
204901.000			2.656			-0.885
205000.000			2.658			-0.886
205101.000			2.657			-0.886
205200.000			2.656			-0.885
205300.000			2.658			-0.886
205401.000			2.658			-0.886
205500.000			2.659			-0.886
205600.000			2.659			-0.886
205702.000			2.658			-0.886
205801.000			2.657			-0.886
205900.000			2.657			-0.886
206001.000			2.658			-0.886
206100.000			2.657			-0.886
206200.000			2.657			-0.886
206301.000			2.657			-0.886
206400.000			2.657			-0.886
206500.000			2.657			-0.886
206602.000			2.657			-0.886
206701.000			2.657			-0.886
206802.000			2.657			-0.886
206900.000			2.658			-0.886
207000.000			2.658			-0.886
207101.000			2.658			-0.886
207200.000			2.657			-0.886
207300.000			2.657			-0.886
207401.000			2.658			-0.886
207500.000			2.657			-0.886
207601.000			2.657			-0.886
207702.000			2.657			-0.886
207800.000			2.657			-0.886
207900.000			2.657			-0.886
208001.000			2.658			-0.886
208100.000			2.657			-0.886
208200.000			2.657			-0.886
208301.000			2.656			-0.885
208400.000			2.656			-0.885
208501.000			2.657			-0.886
208602.000			2.657			-0.886
208701.000			2.658			-0.886
208800.000			2.657			-0.886
208901.000			2.656			-0.885
209000.000			2.656			-0.885
209100.000			2.656			-0.885
209201.000			2.656			-0.885
209300.000			2.656			-0.885
209400.000			2.656			-0.885
209502.000			2.657			-0.886
209601.000			2.656			-0.885
209700.000			2.656			-0.885
209801.000			2.655			-0.885
209900.000			2.656			-0.885
210000.000			2.657			-0.886
210100.000			2.656			-0.885
210200.000			2.656			-0.885
210301.000			2.655			-0.885
210401.000			2.656			-0.885
210501.000			2.656			-0.885
210602.000			2.656			-0.885
210700.000			2.655			-0.885
210800.000			2.656			-0.885
210901.000			2.656			-0.885
211000.000			2.655			-0.885
211100.000			2.655			-0.885
211201.000			2.656			-0.885
211300.000			2.657			-0.886
211401.000			2.655			-0.885
211502.000			2.656			-0.885
211600.000			2.656			-0.885
211700.000			2.656			-0.885
211801.000			2.655			-0.885
211900.000			2.655			-0.885
212000.000			2.654			-0.885
212101.000			2.655			-0.885
212200.000			2.656			-0.885
212301.000			2.655			-0.885
212402.000			2.655			-0.885
212500.000			2.655			-0.885
212600.000			2.654			-0.885
212701.000			2.654			-0.885
212800.000			2.655			-0.885
212900.000			2.656			-0.885
213001.000			2.655			-0.885
213100.000			2.656			-0.885
213202.000			2.655			-0.885
213301.000			2.655			-0.885
213400.000			2.655			-0.885
213501.000			2.655			-0.885
213600.000			2.655			-0.885
213700.000			2.654			-0.885
213801.000			2.655			-0.885
213900.000			2.655			-0.885
214000.000			2.655			-0.885
214102.000			2.654			-0.885
214201.000			2.655			-0.885
214301.000			2.655			-0.885
214401.000			2.655			-0.885
214500.000			2.655			-0.885
214600.000			2.654			-0.885
214701.000			2.654			-0.885
214800.000			2.653			-0.884
214900.000			2.654			-0.885
215002.000			2.655			-0.885
215101.000			2.654			-0.885
215201.000			2.654			-0.885
215301.000			2.654			-0.885
215400.000			2.655			-0.885
215500.000			2.657			-0.886
215601.000			2.655			-0.885
215700.000			2.654			-0.885
215800.000			2.655			-0.885
215901.000			2.655			-0.885
216001.000			2.655			-0.885
216101.000			2.655			-0.885
216201.000			2.654			-0.885
216300.000			2.654			-0.885
216400.000			2.655			-0.885
216500.000			2.653			-0.884
216600.000			2.653			-0.884
216701.000			2.653			-0.884
216800.000			2.653			-0.884
216901.000			2.654			-0.885
217002.000			2.654			-0.885
217101.000			2.653			-0.884
217200.000			2.653			-0.884
217301.000			2.653			-0.884
217400.000			2.654			-0.885
217500.000			2.654			-0.885
217601.000			2.653			-0.884
217700.000			2.653			-0.884
217800.000			2.654			-0.885
217902.000			2.653			-0.884
218001.000			2.653			-0.884
218100.000			2.653			-0.884
218201.000			2.654			-0.885
218300.000			2.654			-0.885
218400.000			2.654			-0.885
218501.000			2.654			-0.885
218600.000			2.654			-0.885
218700.000			2.653			-0.884
218802.000			2.653			-0.884
218901.000			2.654			-0.885
219001.000			2.654			-0.885
219101.000			2.653			-0.884
219200.000			2.653			-0.884
219300.000			2.653			-0.884
219401.000			2.653			-0.884
219500.000			2.652			-0.884
219600.000			2.653			-0.884
219702.000			2.653			-0.884
219801.000			2.653			-0.884
219902.000			2.653			-0.884
220000.000			2.653			-0.884
220100.000			2.654			-0.885
220201.000			2.653			-0.884
220300.000			2.653			-0.884
220400.000			2.653			-0.884
220501.000			2.653			-0.884
220600.000			2.652			-0.884
220701.000			2.653			-0.884
220802.000			2.653			-0.884
220900.000			2.653			-0.884
221000.000			2.652			-0.884
221101.000			2.652			-0.884
221200.000			2.652			-0.884
221300.000			2.652			-0.884
221401.000			2.653			-0.884
221500.000			2.652			-0.884
221601.000			2.653			-0.884
221702.000			2.653			-0.884
221800.000			2.652			-0.884
221900.000			2.652			-0.884
222001.000			2.652			-0.884
222100.000			2.653			-0.884
222200.000			2.653			-0.884
222301.000			2.653			-0.884
222400.000			2.653			-0.884
222501.000			2.652			-0.884
222602.000			2.652			-0.884
222700.000			2.652			-0.884
222800.000			2.653			-0.884
222900.000			2.652			-0.884
223000.000			2.651			-0.884
223101.000			2.651			-0.884
223200.000			2.652			-0.884
223300.000			2.652			-0.884
223402.000			2.653			-0.884
223501.000			2.653			-0.884
223601.000			2.652			-0.884
223701.000			2.652			-0.884
223800.000			2.651			-0.884
223900.000			2.651			-0.884
224001.000			2.652			-0.884
224100.000			2.651			-0.884
224200.000			2.652			-0.884
224302.000			2.652			-0.884
224401.000			2.652			-0.884
224501.000			2.652			-0.884
224601.000			2.652			-0.884
224700.000			2.652			-0.884
224800.000			2.650			-0.883
224901.000			2.651			-0.884
225000.000			2.652			-0.884
225100.000			2.652			-0.884
225201.000			2.652			-0.884
225301.000			2.652			-0.884
225401.000			2.651			-0.884
225501.000			2.652			-0.884
225600.000			2.651			-0.884
225700.000			2.650			-0.883
225801.000			2.651			-0.884
225900.000			2.651			-0.884
226000.000			2.651			-0.884
226100.000			2.652			-0.884
226201.000			2.651			-0.884
226302.000			2.651			-0.884
226400.000			2.650			-0.883
226500.000			2.650			-0.883
226601.000			2.652			-0.884
226700.000			2.651			-0.884
226800.000			2.650			-0.883
226901.000			2.650			-0.883
227000.000			2.650			-0.883
227101.000			2.650			-0.883
227202.000			2.649			-0.883
227301.000			2.650			-0.883
227400.000			2.651			-0.884
227501.000			2.651			-0.884
227600.000			2.651			-0.884
227700.000			2.650			-0.883
227801.000			2.651			-0.884
227900.000			2.650			-0.883
228000.000			2.650			-0.883
228102.000			2.650			-0.883
228201.000			2.651			-0.884
228300.000			2.652			-0.884
228401.000			2.651			-0.884
228500.000			2.651			-0.884
228600.000			2.651			-0.884
228701.000			2.650			-0.883
228800.000			2.650			-0.883
228900.000			2.651			-0.884
229002.000			2.651			-0.884
229101.000			2.650			-0.883
229200.000			2.650			-0.883
229300.000			2.649			-0.883
229400.000			2.650			-0.883
229501.000			2.650			-0.883
229600.000			2.651			-0.884
229700.000			2.650			-0.883
229801.000			2.650			-0.883
229900.000			2.649			-0.883
230001.000			2.649			-0.883
230102.000			2.650			-0.883
230200.000			2.650			-0.883
230300.000			2.649			-0.883
230401.000			2.648			-0.883
230500.000			2.649			-0.883
230600.000			2.650			-0.883
230701.000			2.650			-0.883
230800.000			2.650			-0.883
230901.000			2.649			-0.883
231002.000			2.650			-0.883
231100.000			2.651			-0.884
231200.000			2.650			-0.883
231301.000			2.650			-0.883
231400.000			2.649			-0.883
231500.000			2.650			-0.883
231601.000			2.649			-0.883
231700.000			2.649			-0.883
231801.000			2.650			-0.883
231902.000			2.650			-0.883
232001.000			2.650			-0.883
232100.000			2.649			-0.883
232201.000			2.650			-0.883
232300.000			2.650			-0.883
232400.000			2.649			-0.883
232500.000			2.649			-0.883
232600.000			2.650			-0.883
232701.000			2.650			-0.883
232801.000			2.649			-0.883
232901.000			2.649			-0.883
233001.000			2.648			-0.883
233100.000			2.649			-0.883
233200.000			2.650			-0.883
233301.000			2.649			-0.883
233400.000			2.648			-0.883
233500.000			2.649			-0.883
233601.000			2.649			-0.883
233701.000			2.649			-0.883
233801.000			2.650			-0.883
233902.000			2.650			-0.883
234000.000			2.649			-0.883
234100.000			2.648			-0.883
234201.000			2.649			-0.883
234300.000			2.649			-0.883
234400.000			2.648			-0.883
234501.000			2.648			-0.883
234601.000			2.648			-0.883
234701.000			2.649			-0.883
234802.000			2.648			-0.883
234900.000			2.647			-0.882
235000.000			2.647			-0.882
235101.000			2.648			-0.883
235200.000			2.647			-0.882
235300.000			2.648			-0.883
235401.000			2.648			-0.883
235500.000			2.648			-0.883
235602.000			2.648			-0.883
235701.000			2.649			-0.883
235801.000			2.649			-0.883
235901.000			2.648			-0.883
236000.000			2.648			-0.883
236100.000			2.648			-0.883
236201.000			2.648			-0.883
236300.000			2.648			-0.883
236400.000			2.649			-0.883
236501.000			2.648			-0.883
236601.000			2.648			-0.883
236701.000			2.648			-0.883
236801.000			2.649			-0.883
236900.000			2.649			-0.883
237000.000			2.648			-0.883
237101.000			2.648			-0.883
237200.000			2.648			-0.883
237300.000			2.647			-0.882
237401.000			2.648			-0.883
237500.000			2.648			-0.883
237601.000			2.648			-0.883
237702.000			2.648			-0.883
237800.000			2.648			-0.883
237900.000			2.648			-0.883
238001.000			2.648			-0.883
238100.000			2.648			-0.883
238200.000			2.648			-0.883
238301.000			2.647			-0.882
238400.000			2.647			-0.882
238501.000			2.647			-0.882
238602.000			2.647			-0.882
238701.000			2.648			-0.883
238800.000			2.648			-0.883
238900.000			2.648			-0.883
239000.000			2.648			-0.883
239101.000			2.647			-0.882
239200.000			2.648			-0.883
239300.000			2.647			-0.882
239401.000			2.647			-0.882
239501.000			2.647			-0.882
239601.000			2.647			-0.882
239702.000			2.647			-0.882
239800.000			2.647			-0.882
239900.000			2.647			-0.882
240001.000			2.647			-0.882
240100.000			2.647			-0.882
240200.000			2.647			-0.882
240301.000			2.648			-0.883
240400.000			2.648			-0.883
240501.000			2.647			-0.882
240602.000			2.646			-0.882
240700.000			2.648			-0.883
240800.000			2.647			-0.882
240901.000			2.647			-0.882
241000.000			2.647			-0.882
241100.000			2.646			-0.882
241201.000			2.647			-0.882
241300.000			2.647			-0.882
241401.000			2.647			-0.882
241502.000			2.647			-0.882
241601.000			2.646			-0.882
241700.000			2.645			-0.882
241801.000			2.646			-0.882
241900.000			2.646			-0.882
242000.000			2.647			-0.882
242100.000			2.647			-0.882
242200.000			2.646			-0.882
242301.000			2.647			-0.882
242401.000			2.647			-0.882
242501.000			2.646			-0.882
242601.000			2.646			-0.882
242700.000			2.647			-0.882
242800.000			2.647			-0.882
242901.000			2.647			-0.882
243000.000			2.647			-0.882
243100.000			2.647			-0.882
243201.000			2.646			-0.882
243301.000			2.646			-0.882
243401.000			2.646			-0.882
243501.000			2.646			-0.882
243600.000			2.647			-0.882
243700.000			2.646			-0.882
243801.000			2.647			-0.882
243900.000			2.647			-0.882
244000.000			2.646			-0.882
244101.000			2.646			-0.882
244201.000			2.647			-0.882
244301.000			2.646			-0.882
244402.000			2.646			-0.882
244500.000			2.646			-0.882
244600.000			2.647			-0.882
244701.000			2.647			-0.882
244800.000			2.647			-0.882
244900.000			2.646			-0.882
245001.000			2.646			-0.882
245100.000			2.646			-0.882
245202.000			2.647			-0.882
245301.000			2.646			-0.882
245400.000			2.645			-0.882
245501.000			2.645			-0.882
245600.000			2.645			-0.882
245700.000			2.645			-0.882
245801.000			2.645			-0.882
245900.000			2.646			-0.882
246000.000			2.646			-0.882
246102.000			2.646			-0.882
246201.000			2.646			-0.882
246301.000			2.645			-0.882
246401.000			2.645			-0.882
246500.000			2.646			-0.882
246600.000			2.645			-0.882
246701.000			2.645			-0.882
246800.000			2.646			-0.882
246900.000			2.646			-0.882
247001.000			2.645			-0.882
247101.000			2.646			-0.882
247201.000			2.645			-0.882
247301.000			2.646			-0.882
247400.000			2.646			-0.882
247500.000			2.645			-0.882
247601.000			2.647			-0.882
247700.000			2.646			-0.882
247800.000			2.646			-0.882
247901.000			2.645			-0.882
248001.000			2.645			-0.882
248101.000			2.646			-0.882
248202.000			2.646			-0.882
248300.000			2.645			-0.882
248400.000			2.644			-0.881
248500.000			2.644			-0.881
248600.000			2.644			-0.881
248701.000			2.645			-0.882
248800.000			2.644			-0.881
248900.000			2.646			-0.882
249002.000			2.646			-0.882
249101.000			2.645			-0.882
249201.000			2.645			-0.882
249301.000			2.646			-0.882
249400.000			2.645			-0.882
249500.000			2.645			-0.882
249601.000			2.645			-0.882
249700.000			2.644			-0.881
249800.000			2.644			-0.881
249901.000			2.645			-0.882
250001.000			2.645			-0.882
250101.000			2.644			-0.881
250201.000			2.644			-0.881
250300.000			2.645			-0.882
250400.000			2.644			-0.881
250501.000			2.645			-0.882
250600.000			2.645			-0.882
250700.000			2.643			-0.881
250801.000			2.643			-0.881
250901.000			2.644			-0.881
251001.000			2.644			-0.881
251101.000			2.644			-0.881
251200.000			2.644			-0.881
251300.000			2.644			-0.881
251401.000			2.644			-0.881
251500.000			2.644			-0.881
251600.000			2.644			-0.881
251700.000			2.644			-0.881
251801.000			2.643			-0.881
251902.000			2.643			-0.881
252001.000			2.643			-0.881
252100.000			2.642			-0.881
252201.000			2.643			-0.881
252300.000			2.643			-0.881
252400.000			2.643			-0.881
252501.000			2.643			-0.881
252600.000			2.642			-0.881
252701.000			2.643			-0.881
252802.000			2.644			-0.881
252901.000			2.644			-0.881
253000.000			2.643			-0.881
253101.000			2.643			-0.881
253200.000			2.645			-0.882
253300.000			2.643			-0.881
253401.000			2.644			-0.881
253500.000			2.644			-0.881
253600.000			2.644			-0.881
253702.000			2.644			-0.881
253801.000			2.643			-0.881
253900.000			2.643			-0.881
254001.000			2.643			-0.881
254100.000			2.644			-0.881
254200.000			2.644			-0.881
254301.000			2.643			-0.881
254400.000			2.643			-0.881
254500.000			2.642			-0.881
254602.000			2.643			-0.881
254701.000			2.643			-0.881
254802.000			2.642			-0.881
254900.000			2.642			-0.881
255000.000			2.642			-0.881
255101.000			2.643			-0.881
255200.000			2.643			-0.881
255300.000			2.643			-0.881
255401.000			2.643			-0.881
255500.000			2.643			-0.881
255601.000			2.644			-0.881
255702.000			2.643			-0.881
255800.000			2.643			-0.881
255900.000			2.644			-0.881
256001.000			2.644			-0.881
256100.000			2.642			-0.881
256200.000			2.643			-0.881
256301.000			2.643			-0.881
256400.000			2.642			-0.881
256501.000			2.642			-0.881
256602.000			2.643			-0.881
256701.000			2.642			-0.881
256800.000			2.642			-0.881
256901.000			2.642			-0.881
257000.000			2.643			-0.881
257100.000			2.643			-0.881
257201.000			2.643			-0.881
257300.000			2.642			-0.881
257400.000			2.642			-0.881
257502.000			2.643			-0.881
257601.000			2.643			-0.881
257700.000			2.641			-0.880
257801.000			2.642			-0.881
257900.000			2.643			-0.881
258000.000			2.644			-0.881
258100.000			2.642			-0.881
258200.000			2.642			-0.881
258301.000			2.642			-0.881
258401.000			2.642			-0.881
258501.000			2.642			-0.881
258602.000			2.641			-0.880
258700.000			2.642			-0.881
258800.000			2.642			-0.881
258901.000			2.642			-0.881
259000.000			2.642			-0.881
259100.000			2.641			-0.880
259201.000			2.642			-0.881
259300.000			2.642			-0.881
259401.000			2.642			-0.881
259502.000			2.643			-0.881
259600.000			2.643			-0.881
259700.000			2.642			-0.881
259801.000			2.642			-0.881
259900.000			2.642			-0.881
260000.000			2.643			-0.881
260101.000			2.642			-0.881
260200.000			2.642			-0.881
260301.000			2.642			-0.881
260402.000			2.642			-0.881
260501.000			2.642			-0.881
260600.000			2.642			-0.881
260701.000			2.642			-0.881
260800.000			2.641			-0.880
260900.000			2.641			-0.880
261001.000			2.642			-0.881
261100.000			2.642			-0.881
261200.000			2.642			-0.881
261302.000			2.641			-0.880
261401.000			2.640			-0.880
261501.000			2.640			-0.880
261600.000			2.641			-0.880
261700.000			2.641			-0.880
261801.000			2.641			-0.880
261900.000			2.641			-0.880
262000.000			2.641			-0.880
262101.000			2.642			-0.881
262201.000			2.641			-0.880
262301.000			2.641			-0.880
262401.000			2.641			-0.880
262500.000			2.642			-0.881
262600.000			2.642			-0.881
262701.000			2.641			-0.880
262800.000			2.641			-0.880
262900.000			2.641			-0.880
263001.000			2.641			-0.880
263101.000			2.640			-0.880
263201.000			2.640			-0.880
263301.000			2.640			-0.880
263400.000			2.639			-0.880
263500.000			2.640			-0.880
263601.000			2.640			-0.880
263700.000			2.639			-0.880
263800.000			2.640			-0.880
263901.000			2.641			-0.880
264001.000			2.641			-0.880
264101.000			2.641			-0.880
264201.000			2.640			-0.880
264300.000			2.640			-0.880
264400.000			2.641			-0.880
264500.000			2.640			-0.880
264600.000			2.640			-0.880
264701.000			2.641			-0.880
264800.000			2.640			-0.880
264900.000			2.640			-0.880
265002.000			2.640			-0.880
265101.000			2.640			-0.880
265200.000			2.640			-0.880
265301.000			2.641			-0.880
265400.000			2.640			-0.880
265500.000			2.640			-0.880
265601.000			2.640			-0.880
265700.000			2.641			-0.880
265800.000			2.641			-0.880
265902.000			2.640			-0.880
266001.000			2.638			-0.879
266100.000			2.639			-0.880
266201.000			2.639			-0.880
266300.000			2.640			-0.880
266400.000			2.640			-0.880
266501.000			2.641			-0.880
266600.000			2.641			-0.880
266700.000			2.640			-0.880
266802.000			2.640			-0.880
266901.000			2.641			-0.880
267001.000			2.641			-0.880
267101.000			2.640			-0.880
267200.000			2.640			-0.880
267300.000			2.641			-0.880
267401.000			2.641			-0.880
267500.000			2.640			-0.880
267600.000			2.640			-0.880
267700.000			2.640			-0.880
267801.000			2.640			-0.880
267902.000			2.641			-0.880
268000.000			2.639			-0.880
268100.000			2.639			-0.880
268201.000			2.639			-0.880
268300.000			2.639			-0.880
268400.000			2.639			-0.880
268501.000			2.639			-0.880
268600.000			2.640			-0.880
268700.000			2.639			-0.880
268802.000			2.639			-0.880
268901.000			2.639			-0.880
269000.000			2.640			-0.880
269101.000			2.640			-0.880
269200.000			2.640			-0.880
269300.000			2.640			-0.880
269401.000			2.638			-0.879
269500.000			2.639			-0.880
269600.000			2.639			-0.880
269702.000			2.640			-0.880
269801.000			2.640			-0.880
269901.000			2.638			-0.879
270001.000			2.639			-0.880
270100.000			2.639			-0.880
270200.000			2.639			-0.880
270301.000			2.639			-0.880
270400.000			2.638			-0.879
270500.000			2.639			-0.880
270601.000			2.638			-0.879
270701.000			2.638			-0.879
270802.000			2.639			-0.880
270900.000			2.639			-0.880
271000.000			2.639			-0.880
271101.000			2.639			-0.880
271200.000			2.640			-0.880
271300.000			2.639			-0.880
271401.000			2.639			-0.880
271500.000			2.639			-0.880
271601.000			2.639			-0.880
271702.000			2.638			-0.879
271801.000			2.639			-0.880
271900.000			2.639			-0.880
272001.000			2.638			-0.879
272100.000			2.638			-0.879
272200.000			2.638			-0.879
272301.000			2.639			-0.880
272400.000			2.639			-0.880
272500.000			2.638			-0.879
272602.000			2.638			-0.879
272701.000			2.638			-0.879
272800.000			2.637			-0.879
272901.000			2.638			-0.879
273000.000			2.639			-0.880
273100.000			2.639			-0.880
273201.000			2.639			-0.880
273300.000			2.638			-0.879
273400.000			2.637			-0.879
273502.000			2.638			-0.879
273601.000			2.638			-0.879
273700.000			2.637			-0.879
273801.000			2.638			-0.879
273900.000			2.639			-0.880
274000.000			2.639			-0.880
274100.000			2.638			-0.879
274200.000			2.638			-0.879
274301.000			2.639			-0.880
274401.000			2.639			-0.880
274501.000			2.638			-0.879
274602.000			2.638			-0.879
274700.000			2.638			-0.879
274800.000			2.637			-0.879
274901.000			2.637			-0.879
275000.000			2.638			-0.879
275100.000			2.638			-0.879
275201.000			2.637			-0.879
275300.000			2.638			-0.879
275401.000			2.638			-0.879
275502.000			2.638			-0.879
275601.000			2.639			-0.880
275700.000			2.638			-0.879
275801.000			2.637			-0.879
275900.000			2.638			-0.879
276000.000			2.638			-0.879
276101.000			2.638			-0.879
276200.000			2.637			-0.879
276300.000			2.637			-0.879
276402.000			2.638			-0.879
276501.000			2.638			-0.879
276600.000			2.638			-0.879
276701.000			2.637			-0.879
276800.000			2.637			-0.879
276900.000			2.638			-0.879
277001.000			2.638			-0.879
277100.000			2.637			-0.879
277200.000			2.637			-0.879
277300.000			2.637			-0.879
277401.000			2.637			-0.879
277502.000			2.637			-0.879
277600.000			2.636			-0.879
277700.000			2.636			-0.879
277801.000			2.637			-0.879
277900.000			2.637			-0.879
278000.000			2.637			-0.879
278101.000			2.637			-0.879
278200.000			2.638			-0.879
278301.000			2.637			-0.879
278402.000			2.636			-0.879
278501.000			2.637			-0.879
278600.000			2.637			-0.879
278701.000			2.637			-0.879
278800.000			2.637			-0.879
278900.000			2.637			-0.879
279001.000			2.637			-0.879
279100.000			2.637			-0.879
279200.000			2.637			-0.879
279302.000			2.637			-0.879
279401.000			2.636			-0.879
279501.000			2.636			-0.879
279601.000			2.635			-0.878
279700.000			2.637			-0.879
279800.000			2.637			-0.879
279901.000			2.637			-0.879
280000.000			2.637			-0.879
280100.000			2.637			-0.879
280201.000			2.637			-0.879
280301.000			2.637			-0.879
280402.000			2.635			-0.878
280500.000			2.636			-0.879
280600.000			2.636			-0.879
280701.000			2.636			-0.879
280800.000			2.636			-0.879
280900.000			2.636			-0.879
281001.000			2.636			-0.879
281100.000			2.636			-0.879
281201.000			2.636			-0.879
281302.000			2.636			-0.879
281401.000			2.636			-0.879
281500.000			2.636			-0.879
281601.000			2.636			-0.879
281700.000			2.636			-0.879
281800.000			2.636			-0.879
281901.000			2.636			-0.879
282000.000			2.635			-0.878
282100.000			2.636			-0.879
282202.000			2.636			-0.879
282301.000			2.636			-0.879
282400.000			2.635			-0.878
282501.000			2.635			-0.878
282600.000			2.636			-0.879
282700.000			2.636			-0.879
282801.000			2.637			-0.879
282900.000			2.636			-0.879
283000.000			2.636			-0.879
283102.000			2.635			-0.878
283201.000			2.636			-0.879
283301.000			2.636			-0.879
283401.000			2.636			-0.879
283500.000			2.636			-0.879
283600.000			2.636			-0.879
283700.000			2.638			-0.879
283800.000			2.636			-0.879
283901.000			2.635			-0.878
284000.000			2.636			-0.879
284101.000			2.635			-0.878
284202.000			2.635			-0.878
284300.000			2.635			-0.878
284400.000			2.634			-0.878
284501.000			2.635			-0.878
284600.000			2.634			-0.878
284700.000			2.635			-0.878
284801.000			2.635			-0.878
284900.000			2.635			-0.878
285001.000			2.635			-0.878
285102.000			2.635			-0.878
285201.000			2.635			-0.878
285300.000			2.635			-0.878
285401.000			2.635			-0.878
285500.000			2.635			-0.878
285600.000			2.635			-0.878
285701.000			2.635			-0.878
285800.000			2.635			-0.878
285900.000			2.635			-0.878
286002.000			2.635			-0.878
286101.000			2.634			-0.878
286200.000			2.635			-0.878
286301.000			2.635			-0.878
286400.000			2.635			-0.878
286500.000			2.635			-0.878
286601.000			2.634			-0.878
286700.000			2.634			-0.878
286800.000			2.635			-0.878
286902.000			2.636			-0.879
287001.000			2.635			-0.878
287102.000			2.634			-0.878
287200.000			2.634			-0.878
287300.000			2.633			-0.878
287401.000			2.634			-0.878
287500.000			2.634			-0.878
287600.000			2.635			-0.878
287701.000			2.635			-0.878
287800.000			2.634			-0.878
287901.000			2.635			-0.878
288002.000			2.635			-0.878
288101.000			2.634			-0.878
288200.000			2.633			-0.878
288301.000			2.634			-0.878
288400.000			2.635			-0.878
288500.000			2.635			-0.878
288601.000			2.634			-0.878
288700.000			2.634			-0.878
288800.000			2.633			-0.878
288902.000			2.633			-0.878
289001.000			2.634			-0.878
289101.000			2.635			-0.878
289201.000			2.634			-0.878
289300.000			2.635			-0.878
289400.000			2.634			-0.878
289501.000			2.633			-0.878
289600.000			2.633			-0.878
289700.000			2.634			-0.878
289802.000			2.635			-0.878
289901.000			2.634			-0.878
290002.000			2.634			-0.878
290100.000			2.634			-0.878
290200.000			2.634			-0.878
290301.000			2.634			-0.878
290400.000			2.634			-0.878
290500.000			2.634			-0.878
290601.000			2.634			-0.878
290700.000			2.634			-0.878
290801.000			2.634			-0.878
290902.000			2.633			-0.878
291001.000			2.634			-0.878
291100.000			2.635			-0.878
291201.000			2.634			-0.878
291300.000			2.633			-0.878
291400.000			2.633			-0.878
291501.000			2.633			-0.878
291600.000			2.633			-0.878
291701.000			2.633			-0.878
291802.000			2.634			-0.878
291901.000			2.634			-0.878
292000.000			2.634			-0.878
292101.000			2.633			-0.878
292200.000			2.633			-0.878
292300.000			2.634			-0.878
292401.000			2.633			-0.878
292500.000			2.633			-0.878
292600.000			2.633			-0.878
292702.000			2.634			-0.878
292801.000			2.633			-0.878
292900.000			2.633			-0.878
293001.000			2.632			-0.877
293100.000			2.632			-0.877
293200.000			2.632			-0.877
293300.000			2.633			-0.878
293400.000			2.633			-0.878
293501.000			2.633			-0.878
293601.000			2.633			-0.878
293701.000			2.632			-0.877
293801.000			2.633			-0.878
293900.000			2.633			-0.878
294000.000			2.634			-0.878
294101.000			2.633			-0.878
294200.000			2.632			-0.877
294300.000			2.632			-0.877
294401.000			2.633			-0.878
294501.000			2.632			-0.877
294601.000			2.632			-0.877
294702.000			2.633			-0.878
294800.000			2.633			-0.878
294900.000			2.634			-0.878
295001.000			2.633			-0.878
295100.000			2.633			-0.878
295200.000			2.633			-0.878
295301.000			2.633			-0.878
295400.000			2.633			-0.878
295501.000			2.632			-0.877
295602.000			2.633			-0.878
295700.000			2.633			-0.878
295800.000			2.632			-0.877
295901.000			2.632			-0.877
296000.000			2.632			-0.877
296100.000			2.632			-0.877
296201.000			2.631			-0.877
296300.000			2.631			-0.877
296402.000			2.630			-0.877
296501.000			2.633			-0.878
296601.000			2.632			-0.877
296701.000			2.632			-0.877
296800.000			2.632			-0.877
296900.000			2.631			-0.877
297001.000			2.631			-0.877
297100.000			2.632			-0.877
297200.000			2.632			-0.877
297301.000			2.631			-0.877
297401.000			2.632			-0.877
297501.000			2.632			-0.877
297601.000			2.632			-0.877
297700.000			2.632			-0.877
297800.000			2.632			-0.877
297901.000			2.632			-0.877
298000.000			2.632			-0.877
298100.000			2.632			-0.877
298201.000			2.632			-0.877
298301.000			2.632			-0.877
298401.000			2.632			-0.877
298502.000			2.632			-0.877
298600.000			2.631			-0.877
298700.000			2.632			-0.877
298801.000			2.632			-0.877
298900.000			2.631			-0.877
299000.000			2.632			-0.877
299101.000			2.631			-0.877
299200.000			2.631			-0.877
299301.000			2.633			-0.878
299402.000			2.632			-0.877
299501.000			2.632			-0.877
299600.000			2.632			-0.877
299700.000			2.632			-0.877
299800.000			2.632			-0.877
299901.000			2.631			-0.877
