# Acquired on 30/01/2024 10:59:46 
# SPIDER: Creep_11mm_GRPCNT1454A-3
# CREEP MEASUREMENT

# time [ms]		force [N]		stiffness [N/mm]
1.000			-52.717			-4.792
105.000			-53.354			-4.850
204.000			-53.242			-4.840
304.000			-52.310			-4.755
405.000			-51.986			-4.726
503.000			-51.713			-4.701
604.000			-51.477			-4.680
705.000			-51.270			-4.661
804.000			-51.084			-4.644
904.000			-50.916			-4.629
1005.000			-50.763			-4.615
1104.000			-50.491			-4.590
1203.000			-50.370			-4.579
1305.000			-50.256			-4.569
1404.000			-50.150			-4.559
1504.000			-50.050			-4.550
1605.000			-49.955			-4.541
1703.000			-49.864			-4.533
1805.000			-49.699			-4.518
1904.000			-49.620			-4.511
2004.000			-49.545			-4.504
2105.000			-49.474			-4.498
2204.000			-49.406			-4.491
2304.000			-49.340			-4.485
2404.000			-49.276			-4.480
2504.000			-49.158			-4.469
2604.000			-49.102			-4.464
2705.000			-49.047			-4.459
2804.000			-48.994			-4.454
2904.000			-48.943			-4.449
3005.000			-48.892			-4.445
3103.000			-48.844			-4.440
3204.000			-48.752			-4.432
3305.000			-48.707			-4.428
3404.000			-48.664			-4.424
3504.000			-48.622			-4.420
3604.000			-48.580			-4.416
3704.000			-48.540			-4.413
3804.000			-48.501			-4.409
3905.000			-48.462			-4.406
4004.000			-48.388			-4.399
4104.000			-48.352			-4.396
4205.000			-48.316			-4.392
4303.000			-48.282			-4.389
4404.000			-48.249			-4.386
4505.000			-48.217			-4.383
4604.000			-48.185			-4.380
4704.000			-48.122			-4.375
4805.000			-48.092			-4.372
4904.000			-48.062			-4.369
5003.000			-48.032			-4.367
5104.000			-48.003			-4.364
5204.000			-47.975			-4.361
5305.000			-47.946			-4.359
5404.000			-47.893			-4.354
5503.000			-47.867			-4.352
5605.000			-47.841			-4.349
5704.000			-47.815			-4.347
5804.000			-47.790			-4.345
5905.000			-47.765			-4.342
6004.000			-47.741			-4.340
6104.000			-47.717			-4.338
6204.000			-47.669			-4.334
6304.000			-47.646			-4.331
6404.000			-47.624			-4.329
6505.000			-47.602			-4.327
6604.000			-47.580			-4.325
6704.000			-47.557			-4.323
6805.000			-47.536			-4.321
6903.000			-47.494			-4.318
7004.000			-47.474			-4.316
7105.000			-47.454			-4.314
7204.000			-47.433			-4.312
7304.000			-47.413			-4.310
7405.000			-47.393			-4.308
7504.000			-47.374			-4.307
7603.000			-47.337			-4.303
7705.000			-47.318			-4.302
7804.000			-47.299			-4.300
7904.000			-47.281			-4.298
8005.000			-47.263			-4.297
8103.000			-47.245			-4.295
8205.000			-47.227			-4.293
8304.000			-47.193			-4.290
8404.000			-47.175			-4.289
8505.000			-47.158			-4.287
8604.000			-47.142			-4.286
8704.000			-47.126			-4.284
8804.000			-47.110			-4.283
8904.000			-47.094			-4.281
9004.000			-47.078			-4.280
9105.000			-47.046			-4.277
9204.000			-47.031			-4.276
9304.000			-47.015			-4.274
9405.000			-47.000			-4.273
9503.000			-46.985			-4.271
9604.000			-46.970			-4.270
9705.000			-46.955			-4.269
9804.000			-46.925			-4.266
9904.000			-46.912			-4.265
10005.000			-46.898			-4.263
10104.000			-46.883			-4.262
10203.000			-46.869			-4.261
10305.000			-46.856			-4.260
10404.000			-46.842			-4.258
10504.000			-46.813			-4.256
10605.000			-46.801			-4.255
10704.000			-46.787			-4.253
10804.000			-46.774			-4.252
10904.000			-46.762			-4.251
11004.000			-46.749			-4.250
11104.000			-46.736			-4.249
11205.000			-46.708			-4.246
11304.000			-46.697			-4.245
11403.000			-46.685			-4.244
11504.000			-46.673			-4.243
11603.000			-46.661			-4.242
11705.000			-46.649			-4.241
11804.000			-46.635			-4.240
11904.000			-46.623			-4.238
12005.000			-46.601			-4.236
12103.000			-46.588			-4.235
12204.000			-46.576			-4.234
12305.000			-46.565			-4.233
12404.000			-46.554			-4.232
12504.000			-46.544			-4.231
12605.000			-46.532			-4.230
12704.000			-46.509			-4.228
12804.000			-46.498			-4.227
12905.000			-46.486			-4.226
13003.000			-46.477			-4.225
13104.000			-46.466			-4.224
13205.000			-46.455			-4.223
13304.000			-46.444			-4.222
13404.000			-46.423			-4.220
13504.000			-46.413			-4.219
13604.000			-46.402			-4.218
13704.000			-46.392			-4.217
13805.000			-46.382			-4.217
13904.000			-46.372			-4.216
14004.000			-46.362			-4.215
14105.000			-46.352			-4.214
14203.000			-46.332			-4.212
14304.000			-46.321			-4.211
14405.000			-46.312			-4.210
14504.000			-46.302			-4.209
14605.000			-46.293			-4.208
14704.000			-46.284			-4.208
14804.000			-46.274			-4.207
14904.000			-46.254			-4.205
15004.000			-46.245			-4.204
15104.000			-46.236			-4.203
15205.000			-46.227			-4.202
15304.000			-46.218			-4.202
15404.000			-46.208			-4.201
15505.000			-46.199			-4.200
15603.000			-46.182			-4.198
15704.000			-46.173			-4.198
15805.000			-46.164			-4.197
15904.000			-46.155			-4.196
16004.000			-46.146			-4.195
16105.000			-46.138			-4.194
16204.000			-46.130			-4.194
16303.000			-46.120			-4.193
16405.000			-46.103			-4.191
16504.000			-46.095			-4.190
16604.000			-46.086			-4.190
16705.000			-46.079			-4.189
16804.000			-46.070			-4.188
16904.000			-46.060			-4.187
17004.000			-46.052			-4.187
17104.000			-46.037			-4.185
17204.000			-46.029			-4.184
17305.000			-46.021			-4.184
17404.000			-46.012			-4.183
17503.000			-46.004			-4.182
17605.000			-45.997			-4.182
17704.000			-45.989			-4.181
17805.000			-45.972			-4.179
17904.000			-45.965			-4.179
18004.000			-45.958			-4.178
18105.000			-45.950			-4.177
18203.000			-45.942			-4.177
18304.000			-45.935			-4.176
18405.000			-45.927			-4.175
18504.000			-45.910			-4.174
18604.000			-45.903			-4.173
18705.000			-45.896			-4.172
18804.000			-45.889			-4.172
18903.000			-45.881			-4.171
19005.000			-45.874			-4.170
19104.000			-45.867			-4.170
19204.000			-45.860			-4.169
19305.000			-45.844			-4.168
19404.000			-45.838			-4.167
19504.000			-45.831			-4.166
19604.000			-45.824			-4.166
19704.000			-45.817			-4.165
19804.000			-45.810			-4.165
19905.000			-45.802			-4.164
20004.000			-45.789			-4.163
20104.000			-45.783			-4.162
20205.000			-45.776			-4.161
20303.000			-45.768			-4.161
20404.000			-45.762			-4.160
20505.000			-45.755			-4.160
20604.000			-45.748			-4.159
20704.000			-45.735			-4.158
20805.000			-45.728			-4.157
20904.000			-45.722			-4.157
21003.000			-45.715			-4.156
21104.000			-45.708			-4.155
21204.000			-45.701			-4.155
21305.000			-45.695			-4.154
21404.000			-45.689			-4.154
21504.000			-45.675			-4.152
21605.000			-45.670			-4.152
21703.000			-45.663			-4.151
21804.000			-45.657			-4.151
21905.000			-45.650			-4.150
22004.000			-45.643			-4.149
22104.000			-45.637			-4.149
22205.000			-45.625			-4.148
22304.000			-45.620			-4.147
22403.000			-45.614			-4.147
22505.000			-45.606			-4.146
22604.000			-45.600			-4.145
22704.000			-45.595			-4.145
22805.000			-45.589			-4.144
22903.000			-45.576			-4.143
23004.000			-45.569			-4.143
23105.000			-45.564			-4.142
23204.000			-45.558			-4.142
23304.000			-45.552			-4.141
23405.000			-45.546			-4.141
23504.000			-45.542			-4.140
23603.000			-45.528			-4.139
23705.000			-45.522			-4.138
23804.000			-45.517			-4.138
23904.000			-45.510			-4.137
24005.000			-45.505			-4.137
24104.000			-45.501			-4.136
24205.000			-45.494			-4.136
24303.000			-45.488			-4.135
24404.000			-45.476			-4.134
24505.000			-45.471			-4.134
24604.000			-45.466			-4.133
24704.000			-45.460			-4.133
24805.000			-45.454			-4.132
24904.000			-45.449			-4.132
25003.000			-45.444			-4.131
25105.000			-45.432			-4.130
25204.000			-45.426			-4.130
25304.000			-45.421			-4.129
25405.000			-45.415			-4.129
25504.000			-45.410			-4.128
25604.000			-45.405			-4.128
25704.000			-45.400			-4.127
25804.000			-45.389			-4.126
25904.000			-45.384			-4.126
26005.000			-45.379			-4.125
26104.000			-45.373			-4.125
26204.000			-45.368			-4.124
26305.000			-45.362			-4.124
26403.000			-45.357			-4.123
26504.000			-45.346			-4.122
26605.000			-45.342			-4.122
26704.000			-45.338			-4.122
26804.000			-45.333			-4.121
26904.000			-45.326			-4.121
27004.000			-45.321			-4.120
27103.000			-45.315			-4.120
27205.000			-45.311			-4.119
27304.000			-45.302			-4.118
27405.000			-45.297			-4.118
27504.000			-45.290			-4.117
27603.000			-45.286			-4.117
27705.000			-45.281			-4.116
27804.000			-45.276			-4.116
27904.000			-45.271			-4.116
28005.000			-45.261			-4.115
28104.000			-45.256			-4.114
28204.000			-45.251			-4.114
28304.000			-45.247			-4.113
28404.000			-45.242			-4.113
28504.000			-45.238			-4.113
28605.000			-45.234			-4.112
28704.000			-45.223			-4.111
28804.000			-45.219			-4.111
28905.000			-45.214			-4.110
29003.000			-45.209			-4.110
29104.000			-45.204			-4.109
29205.000			-45.199			-4.109
29304.000			-45.194			-4.109
29404.000			-45.190			-4.108
29505.000			-45.180			-4.107
29604.000			-45.176			-4.107
29703.000			-45.171			-4.106
29805.000			-45.168			-4.106
29904.000			-45.164			-4.106
30004.000			-45.158			-4.105
30105.000			-45.154			-4.105
30204.000			-45.144			-4.104
30304.000			-45.139			-4.104
30404.000			-45.136			-4.103
30504.000			-45.131			-4.103
30605.000			-45.125			-4.102
30704.000			-45.121			-4.102
30804.000			-45.117			-4.102
30905.000			-45.108			-4.101
31004.000			-45.104			-4.100
31103.000			-45.099			-4.100
31205.000			-45.095			-4.100
31304.000			-45.091			-4.099
31404.000			-45.085			-4.099
31505.000			-45.082			-4.098
31604.000			-45.073			-4.098
31704.000			-45.069			-4.097
31804.000			-45.065			-4.097
31904.000			-45.061			-4.096
32004.000			-45.056			-4.096
32105.000			-45.051			-4.096
32204.000			-45.047			-4.095
32303.000			-45.044			-4.095
32405.000			-45.035			-4.094
32504.000			-45.031			-4.094
32604.000			-45.027			-4.093
32705.000			-45.023			-4.093
32804.000			-45.018			-4.093
32904.000			-45.014			-4.092
33004.000			-45.009			-4.092
33104.000			-45.002			-4.091
33204.000			-44.997			-4.091
33305.000			-44.993			-4.090
33404.000			-44.989			-4.090
33504.000			-44.985			-4.090
33605.000			-44.981			-4.089
33703.000			-44.977			-4.089
33805.000			-44.968			-4.088
33904.000			-44.965			-4.088
34004.000			-44.961			-4.087
34105.000			-44.957			-4.087
34204.000			-44.952			-4.087
34304.000			-44.948			-4.086
34404.000			-44.944			-4.086
34504.000			-44.937			-4.085
34604.000			-44.933			-4.085
34705.000			-44.929			-4.084
34804.000			-44.925			-4.084
34904.000			-44.921			-4.084
35005.000			-44.918			-4.083
35103.000			-44.913			-4.083
35204.000			-44.910			-4.083
35305.000			-44.901			-4.082
35404.000			-44.897			-4.082
35504.000			-44.895			-4.081
35605.000			-44.891			-4.081
35704.000			-44.887			-4.081
35803.000			-44.883			-4.080
35905.000			-44.879			-4.080
36004.000			-44.870			-4.079
36104.000			-44.867			-4.079
36205.000			-44.864			-4.079
36304.000			-44.860			-4.078
36404.000			-44.855			-4.078
36504.000			-44.852			-4.077
36604.000			-44.849			-4.077
36704.000			-44.840			-4.076
36805.000			-44.837			-4.076
36904.000			-44.835			-4.076
37005.000			-44.830			-4.075
37104.000			-44.827			-4.075
37203.000			-44.824			-4.075
37305.000			-44.820			-4.075
37404.000			-44.815			-4.074
37504.000			-44.806			-4.073
37605.000			-44.803			-4.073
37704.000			-44.801			-4.073
37804.000			-44.797			-4.072
37904.000			-44.793			-4.072
38004.000			-44.790			-4.072
38104.000			-44.787			-4.072
38205.000			-44.780			-4.071
38304.000			-44.776			-4.071
38404.000			-44.772			-4.070
38505.000			-44.768			-4.070
38603.000			-44.765			-4.070
38704.000			-44.762			-4.069
38805.000			-44.757			-4.069
38904.000			-44.751			-4.068
39004.000			-44.747			-4.068
39104.000			-44.743			-4.068
39204.000			-44.741			-4.067
39303.000			-44.738			-4.067
39405.000			-44.734			-4.067
39504.000			-44.731			-4.066
39604.000			-44.723			-4.066
39705.000			-44.719			-4.065
39803.000			-44.715			-4.065
39904.000			-44.712			-4.065
40005.000			-44.710			-4.065
40104.000			-44.706			-4.064
40205.000			-44.703			-4.064
40304.000			-44.699			-4.064
40404.000			-44.692			-4.063
40504.000			-44.689			-4.063
40604.000			-44.685			-4.062
40704.000			-44.682			-4.062
40805.000			-44.679			-4.062
40904.000			-44.676			-4.061
41004.000			-44.672			-4.061
41105.000			-44.667			-4.061
41203.000			-44.663			-4.060
41304.000			-44.660			-4.060
41405.000			-44.657			-4.060
41504.000			-44.654			-4.059
41604.000			-44.650			-4.059
41705.000			-44.647			-4.059
41804.000			-44.641			-4.058
41903.000			-44.637			-4.058
42005.000			-44.633			-4.058
42104.000			-44.630			-4.057
42204.000			-44.627			-4.057
42305.000			-44.624			-4.057
42404.000			-44.621			-4.056
42504.000			-44.618			-4.056
42604.000			-44.612			-4.056
42704.000			-44.608			-4.055
42804.000			-44.605			-4.055
42905.000			-44.601			-4.055
43004.000			-44.598			-4.054
43104.000			-44.596			-4.054
43205.000			-44.592			-4.054
43303.000			-44.586			-4.053
43405.000			-44.583			-4.053
43504.000			-44.580			-4.053
43604.000			-44.576			-4.052
43705.000			-44.573			-4.052
43804.000			-44.570			-4.052
43904.000			-44.568			-4.052
44004.000			-44.561			-4.051
44104.000			-44.558			-4.051
44204.000			-44.555			-4.050
44305.000			-44.552			-4.050
44404.000			-44.549			-4.050
44503.000			-44.547			-4.050
44605.000			-44.542			-4.049
44704.000			-44.537			-4.049
44804.000			-44.534			-4.049
44905.000			-44.531			-4.048
45004.000			-44.526			-4.048
45104.000			-44.524			-4.048
45204.000			-44.521			-4.047
45304.000			-44.519			-4.047
45404.000			-44.515			-4.047
45505.000			-44.510			-4.046
45604.000			-44.507			-4.046
45704.000			-44.504			-4.046
45805.000			-44.501			-4.046
45903.000			-44.497			-4.045
46004.000			-44.494			-4.045
46105.000			-44.492			-4.045
46204.000			-44.486			-4.044
46304.000			-44.483			-4.044
46405.000			-44.480			-4.044
46504.000			-44.477			-4.043
46603.000			-44.473			-4.043
46704.000			-44.470			-4.043
46804.000			-44.468			-4.043
46905.000			-44.462			-4.042
47004.000			-44.460			-4.042
47104.000			-44.458			-4.042
47205.000			-44.456			-4.041
47303.000			-44.452			-4.041
47404.000			-44.449			-4.041
47505.000			-44.444			-4.040
47604.000			-44.441			-4.040
47704.000			-44.436			-4.040
47805.000			-44.434			-4.039
47904.000			-44.431			-4.039
48003.000			-44.428			-4.039
48105.000			-44.425			-4.039
48204.000			-44.422			-4.038
48304.000			-44.419			-4.038
48405.000			-44.414			-4.038
48504.000			-44.412			-4.037
48604.000			-44.410			-4.037
48704.000			-44.407			-4.037
48804.000			-44.403			-4.037
48904.000			-44.400			-4.036
49005.000			-44.397			-4.036
49104.000			-44.392			-4.036
49204.000			-44.389			-4.035
49305.000			-44.386			-4.035
49403.000			-44.384			-4.035
49504.000			-44.381			-4.035
49605.000			-44.379			-4.034
49704.000			-44.377			-4.034
49805.000			-44.370			-4.034
49904.000			-44.367			-4.033
50004.000			-44.364			-4.033
50104.000			-44.362			-4.033
50204.000			-44.360			-4.033
50304.000			-44.358			-4.033
50405.000			-44.355			-4.032
50504.000			-44.352			-4.032
50604.000			-44.347			-4.032
50705.000			-44.343			-4.031
50803.000			-44.341			-4.031
50904.000			-44.338			-4.031
51005.000			-44.335			-4.030
51104.000			-44.332			-4.030
51204.000			-44.329			-4.030
51304.000			-44.326			-4.030
51404.000			-44.323			-4.029
51504.000			-44.319			-4.029
51605.000			-44.316			-4.029
51704.000			-44.314			-4.029
51804.000			-44.312			-4.028
51905.000			-44.309			-4.028
52003.000			-44.304			-4.028
52104.000			-44.301			-4.027
52205.000			-44.298			-4.027
52304.000			-44.296			-4.027
52404.000			-44.294			-4.027
52505.000			-44.291			-4.026
52604.000			-44.288			-4.026
52703.000			-44.286			-4.026
52805.000			-44.281			-4.026
52904.000			-44.277			-4.025
53005.000			-44.275			-4.025
53104.000			-44.273			-4.025
53204.000			-44.270			-4.025
53305.000			-44.268			-4.024
53403.000			-44.266			-4.024
53504.000			-44.261			-4.024
53605.000			-44.257			-4.023
53704.000			-44.256			-4.023
53804.000			-44.253			-4.023
53905.000			-44.250			-4.023
54004.000			-44.248			-4.023
54103.000			-44.245			-4.022
54205.000			-44.240			-4.022
54304.000			-44.238			-4.022
54404.000			-44.236			-4.021
54505.000			-44.233			-4.021
54603.000			-44.231			-4.021
54704.000			-44.228			-4.021
54805.000			-44.225			-4.020
54904.000			-44.221			-4.020
55004.000			-44.219			-4.020
55105.000			-44.216			-4.020
55204.000			-44.213			-4.019
55303.000			-44.211			-4.019
55405.000			-44.209			-4.019
55504.000			-44.206			-4.019
55604.000			-44.204			-4.019
55705.000			-44.199			-4.018
55804.000			-44.196			-4.018
55904.000			-44.193			-4.018
56004.000			-44.192			-4.017
56104.000			-44.189			-4.017
56205.000			-44.186			-4.017
56304.000			-44.184			-4.017
56404.000			-44.181			-4.016
56505.000			-44.178			-4.016
56604.000			-44.175			-4.016
56703.000			-44.172			-4.016
56805.000			-44.169			-4.015
56904.000			-44.166			-4.015
57004.000			-44.165			-4.015
57105.000			-44.160			-4.015
57204.000			-44.158			-4.014
57304.000			-44.156			-4.014
57404.000			-44.154			-4.014
57504.000			-44.151			-4.014
57604.000			-44.148			-4.013
57705.000			-44.146			-4.013
57804.000			-44.141			-4.013
57903.000			-44.139			-4.013
58005.000			-44.137			-4.012
58104.000			-44.134			-4.012
58204.000			-44.132			-4.012
58305.000			-44.130			-4.012
58404.000			-44.128			-4.012
58504.000			-44.126			-4.011
58604.000			-44.122			-4.011
58704.000			-44.119			-4.011
58804.000			-44.116			-4.011
58905.000			-44.114			-4.010
59004.000			-44.112			-4.010
59104.000			-44.110			-4.010
59205.000			-44.108			-4.010
59303.000			-44.103			-4.009
59405.000			-44.101			-4.009
59504.000			-44.098			-4.009
59604.000			-44.095			-4.009
59705.000			-44.093			-4.008
59804.000			-44.091			-4.008
59904.000			-44.088			-4.008
60004.000			-44.085			-4.008
60104.000			-44.082			-4.007
60204.000			-44.080			-4.007
60305.000			-44.078			-4.007
60404.000			-44.075			-4.007
60504.000			-44.073			-4.007
60605.000			-44.071			-4.006
60703.000			-44.069			-4.006
60804.000			-44.065			-4.006
60905.000			-44.063			-4.006
61004.000			-44.060			-4.005
61104.000			-44.058			-4.005
61204.000			-44.055			-4.005
61304.000			-44.053			-4.005
61404.000			-44.051			-4.005
61505.000			-44.048			-4.004
61604.000			-44.045			-4.004
61704.000			-44.042			-4.004
61805.000			-44.040			-4.004
61903.000			-44.039			-4.004
62004.000			-44.037			-4.003
62105.000			-44.034			-4.003
62204.000			-44.030			-4.003
62304.000			-44.026			-4.002
62405.000			-44.024			-4.002
62504.000			-44.023			-4.002
62603.000			-44.021			-4.002
62704.000			-44.020			-4.002
62804.000			-44.017			-4.002
62905.000			-44.013			-4.001
63004.000			-44.011			-4.001
63104.000			-44.008			-4.001
63205.000			-44.006			-4.001
63303.000			-44.004			-4.000
63404.000			-44.002			-4.000
63505.000			-44.000			-4.000
63604.000			-43.998			-4.000
63704.000			-43.993			-3.999
63804.000			-43.991			-3.999
63904.000			-43.989			-3.999
64003.000			-43.986			-3.999
64105.000			-43.985			-3.999
64204.000			-43.984			-3.999
64304.000			-43.981			-3.998
64405.000			-43.977			-3.998
64504.000			-43.974			-3.998
64604.000			-43.972			-3.997
64704.000			-43.970			-3.997
64804.000			-43.968			-3.997
64904.000			-43.966			-3.997
65005.000			-43.964			-3.997
65104.000			-43.960			-3.996
65204.000			-43.958			-3.996
65305.000			-43.956			-3.996
65403.000			-43.954			-3.996
65504.000			-43.951			-3.996
65605.000			-43.951			-3.996
65704.000			-43.949			-3.995
65805.000			-43.946			-3.995
65904.000			-43.941			-3.995
66004.000			-43.940			-3.995
66104.000			-43.937			-3.994
66204.000			-43.935			-3.994
66304.000			-43.933			-3.994
66405.000			-43.931			-3.994
66504.000			-43.929			-3.994
66604.000			-43.926			-3.993
66705.000			-43.923			-3.993
66803.000			-43.920			-3.993
66904.000			-43.918			-3.993
67005.000			-43.917			-3.992
67104.000			-43.915			-3.992
67204.000			-43.914			-3.992
67305.000			-43.909			-3.992
67404.000			-43.907			-3.992
67503.000			-43.906			-3.991
67605.000			-43.904			-3.991
67704.000			-43.901			-3.991
67804.000			-43.899			-3.991
67905.000			-43.897			-3.991
68004.000			-43.894			-3.990
68104.000			-43.891			-3.990
68204.000			-43.889			-3.990
68304.000			-43.888			-3.990
68404.000			-43.886			-3.990
68505.000			-43.884			-3.989
68604.000			-43.882			-3.989
68704.000			-43.880			-3.989
68805.000			-43.875			-3.989
68903.000			-43.873			-3.988
69005.000			-43.871			-3.988
69104.000			-43.870			-3.988
69204.000			-43.868			-3.988
69305.000			-43.866			-3.988
69404.000			-43.864			-3.988
69504.000			-43.859			-3.987
69605.000			-43.857			-3.987
69704.000			-43.856			-3.987
69803.000			-43.855			-3.987
69905.000			-43.852			-3.987
70004.000			-43.850			-3.986
70104.000			-43.848			-3.986
70205.000			-43.844			-3.986
70304.000			-43.842			-3.986
70404.000			-43.840			-3.985
70504.000			-43.839			-3.985
70604.000			-43.837			-3.985
70704.000			-43.835			-3.985
70805.000			-43.832			-3.985
70904.000			-43.831			-3.985
71004.000			-43.828			-3.984
71105.000			-43.825			-3.984
71203.000			-43.823			-3.984
71304.000			-43.823			-3.984
71405.000			-43.821			-3.984
71504.000			-43.818			-3.983
71604.000			-43.816			-3.983
71705.000			-43.813			-3.983
71804.000			-43.811			-3.983
71903.000			-43.808			-3.983
72005.000			-43.807			-3.982
72104.000			-43.805			-3.982
72205.000			-43.803			-3.982
72304.000			-43.802			-3.982
72404.000			-43.798			-3.982
72505.000			-43.796			-3.981
72603.000			-43.794			-3.981
72704.000			-43.793			-3.981
72805.000			-43.791			-3.981
72904.000			-43.788			-3.981
73004.000			-43.786			-3.981
73105.000			-43.782			-3.980
73204.000			-43.780			-3.980
73303.000			-43.779			-3.980
73405.000			-43.777			-3.980
73504.000			-43.775			-3.980
73604.000			-43.773			-3.979
73705.000			-43.772			-3.979
73804.000			-43.770			-3.979
73904.000			-43.767			-3.979
74004.000			-43.765			-3.979
74104.000			-43.763			-3.978
74204.000			-43.762			-3.978
74305.000			-43.760			-3.978
74404.000			-43.758			-3.978
74504.000			-43.755			-3.978
74605.000			-43.752			-3.977
74703.000			-43.750			-3.977
74804.000			-43.748			-3.977
74905.000			-43.745			-3.977
75004.000			-43.744			-3.977
75104.000			-43.742			-3.977
75205.000			-43.740			-3.976
75304.000			-43.738			-3.976
75403.000			-43.736			-3.976
75504.000			-43.734			-3.976
75604.000			-43.732			-3.976
75705.000			-43.730			-3.975
75804.000			-43.728			-3.975
75904.000			-43.726			-3.975
76005.000			-43.724			-3.975
76103.000			-43.722			-3.975
76204.000			-43.720			-3.975
76305.000			-43.718			-3.974
76404.000			-43.716			-3.974
76504.000			-43.715			-3.974
76605.000			-43.714			-3.974
76704.000			-43.712			-3.974
76803.000			-43.707			-3.973
76905.000			-43.705			-3.973
77004.000			-43.704			-3.973
77104.000			-43.703			-3.973
77205.000			-43.701			-3.973
77304.000			-43.699			-3.973
77404.000			-43.698			-3.973
77504.000			-43.695			-3.972
77604.000			-43.693			-3.972
77704.000			-43.691			-3.972
77805.000			-43.689			-3.972
77904.000			-43.687			-3.972
78004.000			-43.685			-3.971
78105.000			-43.685			-3.971
78203.000			-43.681			-3.971
78304.000			-43.678			-3.971
78405.000			-43.677			-3.971
78504.000			-43.676			-3.971
78605.000			-43.673			-3.970
78704.000			-43.672			-3.970
78804.000			-43.671			-3.970
78904.000			-43.670			-3.970
79004.000			-43.665			-3.970
79104.000			-43.663			-3.969
79205.000			-43.660			-3.969
79304.000			-43.658			-3.969
79404.000			-43.657			-3.969
79505.000			-43.657			-3.969
79603.000			-43.655			-3.969
79704.000			-43.652			-3.968
79805.000			-43.651			-3.968
79904.000			-43.649			-3.968
80004.000			-43.647			-3.968
80105.000			-43.645			-3.968
80204.000			-43.643			-3.968
80303.000			-43.642			-3.967
80405.000			-43.637			-3.967
80504.000			-43.636			-3.967
80604.000			-43.634			-3.967
80705.000			-43.632			-3.967
80804.000			-43.630			-3.966
80904.000			-43.629			-3.966
81004.000			-43.628			-3.966
81104.000			-43.627			-3.966
81204.000			-43.622			-3.966
81305.000			-43.620			-3.965
81404.000			-43.619			-3.965
81504.000			-43.617			-3.965
81605.000			-43.616			-3.965
81703.000			-43.615			-3.965
81805.000			-43.613			-3.965
81904.000			-43.610			-3.965
82004.000			-43.609			-3.964
82105.000			-43.607			-3.964
82204.000			-43.604			-3.964
82304.000			-43.603			-3.964
82404.000			-43.601			-3.964
82504.000			-43.600			-3.964
82604.000			-43.597			-3.963
82705.000			-43.596			-3.963
82804.000			-43.594			-3.963
82904.000			-43.592			-3.963
83005.000			-43.590			-3.963
83103.000			-43.589			-3.963
83204.000			-43.588			-3.963
83305.000			-43.584			-3.962
83404.000			-43.583			-3.962
83504.000			-43.582			-3.962
83605.000			-43.581			-3.962
83704.000			-43.578			-3.962
83803.000			-43.577			-3.962
83905.000			-43.575			-3.961
84004.000			-43.573			-3.961
84104.000			-43.570			-3.961
84205.000			-43.568			-3.961
84304.000			-43.566			-3.961
84404.000			-43.565			-3.960
84504.000			-43.565			-3.960
84604.000			-43.562			-3.960
84704.000			-43.560			-3.960
84805.000			-43.556			-3.960
84904.000			-43.555			-3.960
85005.000			-43.554			-3.959
85104.000			-43.553			-3.959
85203.000			-43.551			-3.959
85305.000			-43.548			-3.959
85404.000			-43.547			-3.959
85504.000			-43.544			-3.959
85605.000			-43.543			-3.958
85704.000			-43.540			-3.958
85804.000			-43.537			-3.958
85904.000			-43.536			-3.958
86004.000			-43.536			-3.958
86104.000			-43.534			-3.958
86205.000			-43.532			-3.957
86304.000			-43.530			-3.957
86404.000			-43.529			-3.957
86505.000			-43.527			-3.957
86603.000			-43.524			-3.957
86704.000			-43.523			-3.957
86805.000			-43.522			-3.957
86904.000			-43.521			-3.956
87004.000			-43.517			-3.956
87105.000			-43.517			-3.956
87204.000			-43.514			-3.956
87303.000			-43.512			-3.956
87405.000			-43.510			-3.955
87504.000			-43.509			-3.955
87604.000			-43.508			-3.955
87705.000			-43.506			-3.955
87804.000			-43.504			-3.955
87904.000			-43.502			-3.955
88004.000			-43.500			-3.955
88104.000			-43.499			-3.954
88205.000			-43.497			-3.954
88304.000			-43.496			-3.954
88404.000			-43.493			-3.954
88505.000			-43.492			-3.954
88604.000			-43.490			-3.954
88703.000			-43.488			-3.953
88805.000			-43.487			-3.953
88904.000			-43.485			-3.953
89004.000			-43.484			-3.953
89105.000			-43.482			-3.953
89204.000			-43.480			-3.953
89304.000			-43.478			-3.953
89405.000			-43.476			-3.952
89504.000			-43.476			-3.952
89603.000			-43.475			-3.952
89705.000			-43.473			-3.952
89804.000			-43.471			-3.952
89904.000			-43.468			-3.952
90005.000			-43.466			-3.951
90104.000			-43.464			-3.951
90204.000			-43.464			-3.951
90304.000			-43.463			-3.951
90404.000			-43.461			-3.951
90504.000			-43.459			-3.951
90605.000			-43.457			-3.951
90704.000			-43.455			-3.950
90804.000			-43.453			-3.950
90905.000			-43.451			-3.950
91003.000			-43.450			-3.950
91104.000			-43.449			-3.950
91205.000			-43.447			-3.950
91304.000			-43.446			-3.950
91405.000			-43.443			-3.949
91504.000			-43.442			-3.949
91604.000			-43.441			-3.949
91704.000			-43.439			-3.949
91804.000			-43.437			-3.949
91904.000			-43.437			-3.949
92005.000			-43.435			-3.949
92104.000			-43.431			-3.948
92204.000			-43.431			-3.948
92305.000			-43.429			-3.948
92403.000			-43.426			-3.948
92504.000			-43.425			-3.948
92605.000			-43.424			-3.948
92704.000			-43.423			-3.948
92804.000			-43.420			-3.947
92904.000			-43.418			-3.947
93004.000			-43.417			-3.947
93103.000			-43.416			-3.947
93205.000			-43.415			-3.947
93304.000			-43.413			-3.947
93404.000			-43.411			-3.946
93505.000			-43.407			-3.946
93603.000			-43.407			-3.946
93704.000			-43.405			-3.946
93805.000			-43.404			-3.946
93904.000			-43.403			-3.946
94004.000			-43.401			-3.946
94105.000			-43.399			-3.945
94204.000			-43.398			-3.945
94303.000			-43.395			-3.945
94405.000			-43.394			-3.945
94504.000			-43.393			-3.945
94605.000			-43.391			-3.945
94704.000			-43.390			-3.945
94804.000			-43.389			-3.944
94905.000			-43.387			-3.944
95004.000			-43.384			-3.944
95104.000			-43.383			-3.944
95204.000			-43.381			-3.944
95304.000			-43.379			-3.944
95404.000			-43.379			-3.944
95505.000			-43.377			-3.943
95604.000			-43.375			-3.943
95704.000			-43.373			-3.943
95805.000			-43.371			-3.943
95903.000			-43.370			-3.943
96004.000			-43.369			-3.943
96105.000			-43.368			-3.943
96204.000			-43.367			-3.942
96304.000			-43.364			-3.942
96405.000			-43.362			-3.942
96504.000			-43.360			-3.942
96603.000			-43.358			-3.942
96705.000			-43.358			-3.942
96804.000			-43.356			-3.941
96904.000			-43.354			-3.941
97005.000			-43.353			-3.941
97104.000			-43.352			-3.941
97204.000			-43.350			-3.941
97304.000			-43.348			-3.941
97404.000			-43.347			-3.941
97504.000			-43.346			-3.941
97605.000			-43.345			-3.940
97704.000			-43.343			-3.940
97805.000			-43.341			-3.940
97904.000			-43.338			-3.940
98003.000			-43.337			-3.940
98105.000			-43.336			-3.940
98204.000			-43.335			-3.940
98304.000			-43.333			-3.939
98405.000			-43.332			-3.939
98504.000			-43.331			-3.939
98604.000			-43.328			-3.939
98704.000			-43.326			-3.939
98804.000			-43.324			-3.939
98904.000			-43.323			-3.938
99005.000			-43.322			-3.938
99104.000			-43.320			-3.938
99204.000			-43.318			-3.938
99305.000			-43.317			-3.938
99403.000			-43.316			-3.938
99504.000			-43.315			-3.938
99605.000			-43.314			-3.938
99704.000			-43.312			-3.937
99804.000			-43.310			-3.937
99905.000			-43.310			-3.937
100004.000			-43.308			-3.937
100103.000			-43.303			-3.937
100205.000			-43.303			-3.937
100304.000			-43.302			-3.937
100404.000			-43.300			-3.936
100505.000			-43.299			-3.936
100604.000			-43.298			-3.936
100704.000			-43.297			-3.936
100804.000			-43.293			-3.936
100904.000			-43.292			-3.936
101005.000			-43.291			-3.936
101104.000			-43.289			-3.935
101204.000			-43.288			-3.935
101305.000			-43.286			-3.935
101404.000			-43.285			-3.935
101503.000			-43.283			-3.935
101605.000			-43.282			-3.935
101704.000			-43.280			-3.935
101804.000			-43.279			-3.934
101905.000			-43.278			-3.934
102004.000			-43.277			-3.934
102104.000			-43.275			-3.934
102204.000			-43.274			-3.934
102304.000			-43.271			-3.934
102404.000			-43.270			-3.934
102505.000			-43.270			-3.934
102604.000			-43.268			-3.933
102704.000			-43.266			-3.933
102805.000			-43.265			-3.933
102903.000			-43.263			-3.933
103004.000			-43.263			-3.933
103105.000			-43.261			-3.933
103204.000			-43.259			-3.933
103304.000			-43.257			-3.932
103405.000			-43.255			-3.932
103504.000			-43.254			-3.932
103603.000			-43.253			-3.932
103705.000			-43.250			-3.932
103804.000			-43.249			-3.932
103904.000			-43.248			-3.932
104005.000			-43.247			-3.932
104104.000			-43.245			-3.931
104205.000			-43.244			-3.931
104303.000			-43.243			-3.931
104404.000			-43.241			-3.931
104505.000			-43.239			-3.931
104604.000			-43.238			-3.931
104704.000			-43.236			-3.931
104805.000			-43.235			-3.930
104904.000			-43.235			-3.930
105003.000			-43.233			-3.930
105105.000			-43.232			-3.930
105204.000			-43.230			-3.930
105304.000			-43.228			-3.930
105405.000			-43.226			-3.930
105504.000			-43.226			-3.930
105604.000			-43.225			-3.930
105704.000			-43.222			-3.929
105804.000			-43.222			-3.929
105904.000			-43.220			-3.929
106005.000			-43.219			-3.929
106104.000			-43.217			-3.929
106204.000			-43.215			-3.929
106305.000			-43.215			-3.929
106403.000			-43.213			-3.928
106504.000			-43.211			-3.928
106605.000			-43.209			-3.928
106704.000			-43.208			-3.928
106804.000			-43.205			-3.928
106905.000			-43.205			-3.928
107004.000			-43.204			-3.928
107103.000			-43.203			-3.928
107205.000			-43.202			-3.927
107304.000			-43.201			-3.927
107405.000			-43.198			-3.927
107504.000			-43.196			-3.927
107604.000			-43.195			-3.927
107705.000			-43.194			-3.927
107803.000			-43.193			-3.927
107904.000			-43.192			-3.927
108005.000			-43.190			-3.926
108104.000			-43.189			-3.926
108204.000			-43.187			-3.926
108305.000			-43.185			-3.926
108404.000			-43.184			-3.926
108503.000			-43.183			-3.926
108605.000			-43.182			-3.926
108704.000			-43.181			-3.926
108804.000			-43.179			-3.925
108905.000			-43.177			-3.925
109004.000			-43.175			-3.925
109104.000			-43.174			-3.925
109204.000			-43.174			-3.925
109304.000			-43.171			-3.925
109404.000			-43.170			-3.925
109505.000			-43.169			-3.924
109604.000			-43.168			-3.924
109704.000			-43.167			-3.924
109805.000			-43.165			-3.924
109903.000			-43.164			-3.924
110004.000			-43.163			-3.924
110105.000			-43.162			-3.924
110204.000			-43.161			-3.924
110304.000			-43.157			-3.923
110405.000			-43.156			-3.923
110504.000			-43.156			-3.923
110603.000			-43.154			-3.923
110704.000			-43.152			-3.923
110804.000			-43.151			-3.923
110905.000			-43.150			-3.923
111004.000			-43.148			-3.923
111104.000			-43.148			-3.923
111205.000			-43.146			-3.922
111303.000			-43.145			-3.922
111404.000			-43.143			-3.922
111505.000			-43.141			-3.922
111604.000			-43.140			-3.922
111704.000			-43.139			-3.922
111805.000			-43.137			-3.922
111904.000			-43.135			-3.921
112003.000			-43.134			-3.921
112105.000			-43.133			-3.921
112204.000			-43.132			-3.921
112304.000			-43.131			-3.921
112405.000			-43.129			-3.921
112504.000			-43.128			-3.921
112604.000			-43.126			-3.921
112704.000			-43.125			-3.920
112804.000			-43.124			-3.920
112904.000			-43.122			-3.920
113005.000			-43.121			-3.920
113104.000			-43.121			-3.920
113204.000			-43.117			-3.920
113305.000			-43.117			-3.920
113403.000			-43.117			-3.920
113504.000			-43.116			-3.920
113605.000			-43.114			-3.919
113704.000			-43.112			-3.919
113805.000			-43.110			-3.919
113904.000			-43.108			-3.919
114004.000			-43.108			-3.919
114104.000			-43.106			-3.919
114204.000			-43.105			-3.919
114304.000			-43.105			-3.919
114405.000			-43.104			-3.919
114504.000			-43.101			-3.918
114604.000			-43.100			-3.918
114705.000			-43.098			-3.918
114803.000			-43.096			-3.918
114904.000			-43.095			-3.918
115005.000			-43.094			-3.918
115104.000			-43.094			-3.918
115204.000			-43.092			-3.917
115305.000			-43.091			-3.917
115404.000			-43.088			-3.917
115503.000			-43.087			-3.917
115605.000			-43.087			-3.917
115704.000			-43.085			-3.917
115804.000			-43.084			-3.917
115905.000			-43.083			-3.917
116004.000			-43.082			-3.917
116104.000			-43.080			-3.916
116204.000			-43.077			-3.916
116304.000			-43.077			-3.916
116404.000			-43.076			-3.916
116505.000			-43.075			-3.916
116604.000			-43.073			-3.916
116704.000			-43.072			-3.916
116805.000			-43.070			-3.915
116903.000			-43.069			-3.915
117005.000			-43.069			-3.915
117104.000			-43.067			-3.915
117204.000			-43.066			-3.915
117305.000			-43.065			-3.915
117404.000			-43.064			-3.915
117504.000			-43.061			-3.915
117604.000			-43.059			-3.914
117704.000			-43.059			-3.914
117804.000			-43.058			-3.914
117905.000			-43.057			-3.914
118004.000			-43.056			-3.914
118104.000			-43.054			-3.914
118205.000			-43.054			-3.914
118303.000			-43.051			-3.914
118404.000			-43.051			-3.914
118505.000			-43.048			-3.913
118604.000			-43.048			-3.913
118704.000			-43.048			-3.913
118805.000			-43.046			-3.913
118904.000			-43.045			-3.913
119004.000			-43.042			-3.913
119105.000			-43.040			-3.913
119203.000			-43.039			-3.913
119304.000			-43.038			-3.913
119405.000			-43.038			-3.913
119504.000			-43.036			-3.912
119604.000			-43.035			-3.912
119704.000			-43.033			-3.912
119804.000			-43.031			-3.912
119903.000			-43.031			-3.912
120005.000			-43.030			-3.912
120104.000			-43.029			-3.912
120205.000			-43.028			-3.912
120304.000			-43.027			-3.912
120404.000			-43.026			-3.911
120505.000			-43.023			-3.911
120603.000			-43.021			-3.911
120704.000			-43.021			-3.911
120805.000			-43.021			-3.911
120904.000			-43.019			-3.911
121004.000			-43.018			-3.911
121105.000			-43.017			-3.911
121204.000			-43.015			-3.910
121303.000			-43.014			-3.910
121405.000			-43.013			-3.910
121504.000			-43.012			-3.910
121604.000			-43.010			-3.910
121705.000			-43.009			-3.910
121804.000			-43.008			-3.910
121904.000			-43.006			-3.910
122004.000			-43.005			-3.910
122104.000			-43.004			-3.909
122204.000			-43.002			-3.909
122305.000			-43.001			-3.909
122404.000			-43.000			-3.909
122503.000			-43.000			-3.909
122605.000			-42.998			-3.909
122704.000			-42.996			-3.909
122804.000			-42.995			-3.909
122905.000			-42.994			-3.909
123004.000			-42.993			-3.908
123104.000			-42.992			-3.908
123205.000			-42.989			-3.908
123304.000			-42.989			-3.908
123403.000			-42.987			-3.908
123504.000			-42.987			-3.908
123604.000			-42.985			-3.908
123705.000			-42.984			-3.908
123804.000			-42.982			-3.907
123904.000			-42.982			-3.907
124005.000			-42.981			-3.907
124103.000			-42.979			-3.907
124204.000			-42.977			-3.907
124305.000			-42.976			-3.907
124404.000			-42.974			-3.907
124504.000			-42.974			-3.907
124605.000			-42.973			-3.907
124704.000			-42.972			-3.907
124803.000			-42.971			-3.906
124905.000			-42.970			-3.906
125004.000			-42.968			-3.906
125104.000			-42.968			-3.906
125205.000			-42.966			-3.906
125304.000			-42.965			-3.906
125404.000			-42.962			-3.906
125505.000			-42.962			-3.906
125604.000			-42.961			-3.906
125703.000			-42.959			-3.905
125805.000			-42.959			-3.905
125904.000			-42.958			-3.905
126004.000			-42.957			-3.905
126105.000			-42.956			-3.905
126204.000			-42.954			-3.905
126304.000			-42.952			-3.905
126404.000			-42.951			-3.905
126504.000			-42.952			-3.905
126605.000			-42.949			-3.904
126704.000			-42.947			-3.904
126804.000			-42.947			-3.904
126905.000			-42.946			-3.904
127004.000			-42.944			-3.904
127104.000			-42.942			-3.904
127205.000			-42.941			-3.904
127303.000			-42.941			-3.904
127404.000			-42.940			-3.904
127505.000			-42.939			-3.904
127604.000			-42.938			-3.903
127704.000			-42.936			-3.903
127805.000			-42.935			-3.903
127904.000			-42.934			-3.903
128003.000			-42.932			-3.903
128105.000			-42.931			-3.903
128204.000			-42.931			-3.903
128304.000			-42.929			-3.903
128405.000			-42.926			-3.902
128504.000			-42.925			-3.902
128604.000			-42.925			-3.902
128704.000			-42.925			-3.902
128804.000			-42.923			-3.902
128904.000			-42.922			-3.902
129005.000			-42.921			-3.902
129104.000			-42.921			-3.902
129204.000			-42.917			-3.902
129305.000			-42.916			-3.901
129403.000			-42.916			-3.901
129504.000			-42.914			-3.901
129604.000			-42.913			-3.901
129704.000			-42.913			-3.901
129805.000			-42.911			-3.901
129904.000			-42.910			-3.901
130004.000			-42.909			-3.901
130105.000			-42.907			-3.901
130204.000			-42.906			-3.901
130303.000			-42.906			-3.901
130405.000			-42.904			-3.900
130504.000			-42.904			-3.900
130604.000			-42.902			-3.900
130705.000			-42.901			-3.900
130804.000			-42.900			-3.900
130904.000			-42.898			-3.900
131004.000			-42.897			-3.900
131104.000			-42.896			-3.900
131204.000			-42.896			-3.900
131305.000			-42.893			-3.899
131404.000			-42.891			-3.899
131504.000			-42.890			-3.899
131605.000			-42.890			-3.899
131704.000			-42.890			-3.899
131804.000			-42.889			-3.899
131904.000			-42.888			-3.899
132004.000			-42.887			-3.899
132104.000			-42.884			-3.899
132205.000			-42.883			-3.898
132304.000			-42.881			-3.898
132404.000			-42.880			-3.898
132505.000			-42.880			-3.898
132604.000			-42.879			-3.898
132704.000			-42.878			-3.898
132804.000			-42.877			-3.898
132904.000			-42.875			-3.898
133005.000			-42.873			-3.898
133104.000			-42.873			-3.898
133204.000			-42.872			-3.897
133305.000			-42.871			-3.897
133404.000			-42.869			-3.897
133504.000			-42.868			-3.897
133605.000			-42.867			-3.897
133703.000			-42.865			-3.897
133804.000			-42.865			-3.897
133905.000			-42.864			-3.897
134004.000			-42.863			-3.897
134104.000			-42.863			-3.897
134205.000			-42.861			-3.896
134304.000			-42.859			-3.896
134404.000			-42.858			-3.896
134505.000			-42.857			-3.896
134603.000			-42.857			-3.896
134704.000			-42.855			-3.896
134805.000			-42.854			-3.896
134904.000			-42.853			-3.896
135004.000			-42.853			-3.896
135105.000			-42.851			-3.896
135204.000			-42.850			-3.895
135304.000			-42.849			-3.895
135405.000			-42.847			-3.895
135503.000			-42.846			-3.895
135604.000			-42.845			-3.895
135705.000			-42.843			-3.895
135804.000			-42.842			-3.895
135904.000			-42.842			-3.895
136005.000			-42.841			-3.895
136104.000			-42.840			-3.895
136205.000			-42.839			-3.894
136304.000			-42.838			-3.894
136403.000			-42.836			-3.894
136505.000			-42.835			-3.894
136604.000			-42.834			-3.894
136704.000			-42.832			-3.894
136805.000			-42.832			-3.894
136904.000			-42.831			-3.894
137004.000			-42.830			-3.894
137105.000			-42.829			-3.894
137204.000			-42.827			-3.893
137303.000			-42.826			-3.893
137405.000			-42.825			-3.893
137504.000			-42.823			-3.893
137604.000			-42.822			-3.893
137705.000			-42.822			-3.893
137804.000			-42.821			-3.893
137904.000			-42.818			-3.893
138005.000			-42.818			-3.893
138104.000			-42.818			-3.893
138203.000			-42.816			-3.892
138305.000			-42.815			-3.892
138404.000			-42.815			-3.892
138504.000			-42.814			-3.892
138605.000			-42.811			-3.892
138704.000			-42.810			-3.892
138804.000			-42.810			-3.892
138905.000			-42.808			-3.892
139004.000			-42.807			-3.892
139103.000			-42.807			-3.892
139205.000			-42.806			-3.891
139304.000			-42.804			-3.891
139405.000			-42.802			-3.891
139504.000			-42.802			-3.891
139604.000			-42.802			-3.891
139705.000			-42.801			-3.891
139804.000			-42.799			-3.891
139904.000			-42.798			-3.891
140004.000			-42.797			-3.891
140104.000			-42.795			-3.890
140203.000			-42.794			-3.890
140305.000			-42.794			-3.890
140404.000			-42.793			-3.890
140504.000			-42.792			-3.890
140605.000			-42.791			-3.890
140704.000			-42.789			-3.890
140804.000			-42.788			-3.890
140904.000			-42.788			-3.890
141004.000			-42.786			-3.890
141104.000			-42.784			-3.889
141205.000			-42.784			-3.889
141304.000			-42.784			-3.889
141404.000			-42.784			-3.889
141505.000			-42.780			-3.889
141604.000			-42.778			-3.889
141704.000			-42.778			-3.889
141804.000			-42.777			-3.889
141904.000			-42.776			-3.889
142004.000			-42.775			-3.889
142105.000			-42.775			-3.889
142204.000			-42.773			-3.888
142304.000			-42.772			-3.888
142405.000			-42.771			-3.888
142504.000			-42.770			-3.888
142605.000			-42.769			-3.888
142703.000			-42.767			-3.888
142804.000			-42.767			-3.888
142905.000			-42.765			-3.888
143004.000			-42.765			-3.888
143104.000			-42.764			-3.888
143205.000			-42.762			-3.887
143304.000			-42.761			-3.887
143404.000			-42.761			-3.887
143505.000			-42.759			-3.887
143603.000			-42.759			-3.887
143704.000			-42.757			-3.887
143805.000			-42.755			-3.887
143904.000			-42.755			-3.887
144004.000			-42.754			-3.887
144105.000			-42.754			-3.887
144204.000			-42.752			-3.887
144303.000			-42.750			-3.886
144405.000			-42.749			-3.886
144503.000			-42.748			-3.886
144604.000			-42.747			-3.886
144705.000			-42.746			-3.886
144804.000			-42.746			-3.886
144904.000			-42.745			-3.886
145005.000			-42.744			-3.886
145104.000			-42.742			-3.886
145203.000			-42.741			-3.886
145305.000			-42.740			-3.885
145403.000			-42.739			-3.885
145504.000			-42.738			-3.885
145605.000			-42.737			-3.885
145704.000			-42.737			-3.885
145805.000			-42.736			-3.885
145904.000			-42.734			-3.885
146004.000			-42.733			-3.885
146104.000			-42.732			-3.885
146204.000			-42.731			-3.885
146303.000			-42.731			-3.885
146405.000			-42.729			-3.884
146504.000			-42.728			-3.884
146604.000			-42.726			-3.884
146705.000			-42.725			-3.884
146804.000			-42.724			-3.884
146904.000			-42.723			-3.884
147004.000			-42.723			-3.884
147104.000			-42.722			-3.884
147203.000			-42.721			-3.884
147305.000			-42.720			-3.884
147404.000			-42.718			-3.883
147504.000			-42.716			-3.883
147605.000			-42.716			-3.883
147704.000			-42.716			-3.883
147804.000			-42.715			-3.883
147904.000			-42.714			-3.883
148004.000			-42.714			-3.883
148103.000			-42.712			-3.883
148205.000			-42.710			-3.883
148304.000			-42.709			-3.883
148404.000			-42.709			-3.883
148505.000			-42.708			-3.883
148604.000			-42.707			-3.882
148704.000			-42.705			-3.882
148804.000			-42.703			-3.882
148904.000			-42.702			-3.882
149003.000			-42.701			-3.882
149104.000			-42.701			-3.882
149204.000			-42.701			-3.882
149305.000			-42.700			-3.882
149404.000			-42.697			-3.882
149504.000			-42.697			-3.882
149605.000			-42.696			-3.881
149704.000			-42.695			-3.881
149804.000			-42.694			-3.881
149904.000			-42.693			-3.881
150004.000			-42.692			-3.881
150104.000			-42.691			-3.881
150205.000			-42.690			-3.881
150304.000			-42.688			-3.881
150404.000			-42.687			-3.881
150505.000			-42.686			-3.881
150604.000			-42.685			-3.880
150704.000			-42.685			-3.880
150804.000			-42.685			-3.880
150904.000			-42.683			-3.880
151004.000			-42.682			-3.880
151105.000			-42.681			-3.880
151204.000			-42.680			-3.880
151304.000			-42.680			-3.880
151405.000			-42.679			-3.880
151504.000			-42.677			-3.880
151604.000			-42.677			-3.880
151704.000			-42.675			-3.880
151804.000			-42.674			-3.879
151904.000			-42.672			-3.879
152005.000			-42.672			-3.879
152104.000			-42.672			-3.879
152205.000			-42.670			-3.879
152304.000			-42.668			-3.879
152404.000			-42.667			-3.879
152505.000			-42.667			-3.879
152603.000			-42.667			-3.879
152704.000			-42.665			-3.879
152805.000			-42.664			-3.879
152904.000			-42.663			-3.878
153004.000			-42.662			-3.878
153105.000			-42.661			-3.878
153204.000			-42.660			-3.878
153304.000			-42.659			-3.878
153405.000			-42.659			-3.878
153503.000			-42.657			-3.878
153604.000			-42.656			-3.878
153705.000			-42.655			-3.878
153804.000			-42.655			-3.878
153904.000			-42.652			-3.877
154005.000			-42.651			-3.877
154104.000			-42.650			-3.877
154204.000			-42.650			-3.877
154305.000			-42.650			-3.877
154403.000			-42.648			-3.877
154504.000			-42.648			-3.877
154605.000			-42.645			-3.877
154704.000			-42.645			-3.877
154804.000			-42.644			-3.877
154905.000			-42.643			-3.877
155004.000			-42.642			-3.877
155104.000			-42.642			-3.877
155205.000			-42.641			-3.876
155303.000			-42.640			-3.876
155405.000			-42.638			-3.876
155504.000			-42.637			-3.876
155604.000			-42.636			-3.876
155705.000			-42.636			-3.876
155804.000			-42.635			-3.876
155904.000			-42.635			-3.876
156004.000			-42.633			-3.876
156104.000			-42.632			-3.876
156203.000			-42.630			-3.875
156305.000			-42.630			-3.875
156404.000			-42.629			-3.875
156504.000			-42.628			-3.875
156605.000			-42.627			-3.875
156704.000			-42.626			-3.875
156804.000			-42.626			-3.875
156904.000			-42.624			-3.875
157004.000			-42.623			-3.875
157103.000			-42.622			-3.875
157205.000			-42.621			-3.875
157304.000			-42.621			-3.875
157404.000			-42.620			-3.875
157505.000			-42.617			-3.874
157604.000			-42.617			-3.874
157704.000			-42.616			-3.874
157804.000			-42.615			-3.874
157904.000			-42.614			-3.874
158004.000			-42.613			-3.874
158105.000			-42.613			-3.874
158204.000			-42.610			-3.874
158304.000			-42.609			-3.874
158405.000			-42.609			-3.874
158504.000			-42.609			-3.874
158605.000			-42.608			-3.873
158703.000			-42.606			-3.873
158804.000			-42.606			-3.873
158905.000			-42.605			-3.873
159004.000			-42.603			-3.873
159104.000			-42.601			-3.873
159205.000			-42.601			-3.873
159304.000			-42.601			-3.873
159404.000			-42.601			-3.873
159505.000			-42.599			-3.873
159603.000			-42.600			-3.873
159704.000			-42.597			-3.872
159805.000			-42.596			-3.872
159904.000			-42.595			-3.872
160004.000			-42.594			-3.872
160105.000			-42.593			-3.872
160204.000			-42.592			-3.872
160304.000			-42.591			-3.872
160405.000			-42.590			-3.872
160503.000			-42.589			-3.872
160604.000			-42.589			-3.872
160704.000			-42.588			-3.872
160804.000			-42.586			-3.871
160904.000			-42.585			-3.871
161005.000			-42.584			-3.871
161104.000			-42.584			-3.871
161204.000			-42.582			-3.871
161305.000			-42.582			-3.871
161403.000			-42.581			-3.871
161504.000			-42.579			-3.871
161605.000			-42.578			-3.871
161704.000			-42.578			-3.871
161805.000			-42.577			-3.871
161904.000			-42.575			-3.870
162004.000			-42.575			-3.870
162105.000			-42.574			-3.870
162204.000			-42.573			-3.870
162303.000			-42.572			-3.870
162405.000			-42.572			-3.870
162504.000			-42.571			-3.870
162604.000			-42.569			-3.870
162705.000			-42.569			-3.870
162804.000			-42.568			-3.870
162904.000			-42.567			-3.870
163005.000			-42.567			-3.870
163104.000			-42.566			-3.870
163203.000			-42.565			-3.870
163305.000			-42.563			-3.869
163404.000			-42.562			-3.869
163504.000			-42.560			-3.869
163605.000			-42.559			-3.869
163704.000			-42.559			-3.869
163804.000			-42.559			-3.869
163905.000			-42.558			-3.869
164004.000			-42.557			-3.869
164103.000			-42.555			-3.869
164205.000			-42.554			-3.869
164304.000			-42.553			-3.868
164404.000			-42.552			-3.868
164505.000			-42.553			-3.868
164604.000			-42.552			-3.868
164704.000			-42.551			-3.868
164805.000			-42.550			-3.868
164904.000			-42.548			-3.868
165003.000			-42.547			-3.868
165104.000			-42.546			-3.868
165204.000			-42.546			-3.868
165305.000			-42.545			-3.868
165404.000			-42.544			-3.868
165504.000			-42.543			-3.868
165605.000			-42.541			-3.867
165704.000			-42.541			-3.867
165804.000			-42.540			-3.867
165904.000			-42.539			-3.867
166004.000			-42.538			-3.867
166104.000			-42.538			-3.867
166205.000			-42.537			-3.867
166304.000			-42.536			-3.867
166404.000			-42.535			-3.867
166505.000			-42.534			-3.867
166604.000			-42.533			-3.867
166704.000			-42.532			-3.867
166804.000			-42.531			-3.866
166904.000			-42.530			-3.866
167004.000			-42.529			-3.866
167105.000			-42.528			-3.866
167204.000			-42.527			-3.866
167304.000			-42.526			-3.866
167405.000			-42.526			-3.866
167504.000			-42.525			-3.866
167604.000			-42.524			-3.866
167704.000			-42.523			-3.866
167804.000			-42.521			-3.866
167904.000			-42.521			-3.866
168005.000			-42.520			-3.865
168104.000			-42.519			-3.865
168205.000			-42.519			-3.865
168304.000			-42.519			-3.865
168404.000			-42.517			-3.865
168505.000			-42.515			-3.865
168603.000			-42.514			-3.865
168704.000			-42.512			-3.865
168805.000			-42.512			-3.865
168904.000			-42.512			-3.865
169004.000			-42.512			-3.865
169105.000			-42.509			-3.864
169204.000			-42.508			-3.864
169304.000			-42.508			-3.864
169405.000			-42.507			-3.864
169503.000			-42.506			-3.864
169604.000			-42.506			-3.864
169705.000			-42.505			-3.864
169804.000			-42.504			-3.864
169904.000			-42.503			-3.864
170005.000			-42.503			-3.864
170104.000			-42.500			-3.864
170204.000			-42.499			-3.864
170305.000			-42.499			-3.864
170403.000			-42.498			-3.863
170504.000			-42.498			-3.863
170605.000			-42.497			-3.863
170704.000			-42.495			-3.863
170804.000			-42.495			-3.863
170905.000			-42.494			-3.863
171004.000			-42.493			-3.863
171104.000			-42.492			-3.863
171205.000			-42.492			-3.863
171303.000			-42.490			-3.863
171405.000			-42.490			-3.863
171504.000			-42.490			-3.863
171604.000			-42.489			-3.863
171705.000			-42.487			-3.862
171804.000			-42.488			-3.863
171904.000			-42.486			-3.862
172005.000			-42.485			-3.862
172104.000			-42.483			-3.862
172203.000			-42.482			-3.862
172305.000			-42.482			-3.862
172404.000			-42.481			-3.862
172504.000			-42.480			-3.862
172605.000			-42.479			-3.862
172704.000			-42.479			-3.862
172804.000			-42.478			-3.862
172905.000			-42.476			-3.861
173004.000			-42.475			-3.861
173103.000			-42.475			-3.861
173205.000			-42.474			-3.861
173304.000			-42.473			-3.861
173404.000			-42.472			-3.861
173505.000			-42.471			-3.861
173604.000			-42.471			-3.861
173704.000			-42.470			-3.861
173805.000			-42.469			-3.861
173904.000			-42.467			-3.861
174003.000			-42.467			-3.861
174105.000			-42.467			-3.861
174204.000			-42.465			-3.860
174304.000			-42.464			-3.860
174405.000			-42.463			-3.860
174504.000			-42.463			-3.860
174605.000			-42.462			-3.860
174704.000			-42.461			-3.860
174804.000			-42.461			-3.860
174904.000			-42.460			-3.860
175004.000			-42.459			-3.860
175104.000			-42.457			-3.860
175205.000			-42.456			-3.860
175304.000			-42.457			-3.860
175404.000			-42.456			-3.860
175505.000			-42.453			-3.859
175604.000			-42.453			-3.859
175704.000			-42.452			-3.859
175804.000			-42.451			-3.859
175904.000			-42.450			-3.859
176003.000			-42.450			-3.859
176105.000			-42.449			-3.859
176204.000			-42.448			-3.859
176304.000			-42.447			-3.859
176405.000			-42.446			-3.859
176504.000			-42.446			-3.859
176604.000			-42.445			-3.859
176704.000			-42.444			-3.859
176804.000			-42.443			-3.858
176903.000			-42.442			-3.858
177005.000			-42.441			-3.858
177104.000			-42.440			-3.858
177204.000			-42.439			-3.858
177305.000			-42.438			-3.858
177404.000			-42.438			-3.858
177504.000			-42.438			-3.858
177604.000			-42.436			-3.858
177704.000			-42.435			-3.858
177803.000			-42.433			-3.858
177904.000			-42.433			-3.858
178004.000			-42.432			-3.857
178105.000			-42.431			-3.857
178204.000			-42.430			-3.857
178304.000			-42.429			-3.857
178405.000			-42.430			-3.857
178503.000			-42.430			-3.857
178604.000			-42.428			-3.857
178704.000			-42.427			-3.857
178804.000			-42.426			-3.857
178904.000			-42.425			-3.857
179005.000			-42.425			-3.857
179104.000			-42.423			-3.857
179204.000			-42.423			-3.857
179305.000			-42.421			-3.856
179403.000			-42.420			-3.856
179504.000			-42.420			-3.856
179604.000			-42.420			-3.856
179704.000			-42.419			-3.856
179804.000			-42.418			-3.856
179905.000			-42.416			-3.856
180004.000			-42.416			-3.856
180104.000			-42.415			-3.856
180205.000			-42.414			-3.856
180303.000			-42.413			-3.856
180404.000			-42.413			-3.856
180505.000			-42.412			-3.856
180604.000			-42.411			-3.856
180704.000			-42.410			-3.855
180805.000			-42.409			-3.855
180904.000			-42.409			-3.855
181005.000			-42.407			-3.855
181104.000			-42.407			-3.855
181203.000			-42.406			-3.855
181305.000			-42.405			-3.855
181404.000			-42.404			-3.855
181504.000			-42.403			-3.855
181605.000			-42.402			-3.855
181704.000			-42.401			-3.855
181804.000			-42.401			-3.855
181904.000			-42.400			-3.855
182004.000			-42.399			-3.854
182103.000			-42.399			-3.854
182205.000			-42.398			-3.854
182304.000			-42.398			-3.854
182404.000			-42.397			-3.854
182505.000			-42.395			-3.854
182604.000			-42.394			-3.854
182704.000			-42.393			-3.854
182804.000			-42.392			-3.854
182904.000			-42.391			-3.854
183003.000			-42.390			-3.854
183105.000			-42.391			-3.854
183204.000			-42.390			-3.854
183304.000			-42.388			-3.853
183405.000			-42.388			-3.853
183504.000			-42.386			-3.853
183604.000			-42.386			-3.853
183704.000			-42.384			-3.853
183804.000			-42.383			-3.853
183903.000			-42.382			-3.853
184005.000			-42.381			-3.853
184104.000			-42.382			-3.853
184205.000			-42.380			-3.853
184304.000			-42.380			-3.853
184404.000			-42.377			-3.852
184505.000			-42.376			-3.852
184603.000			-42.375			-3.852
184704.000			-42.374			-3.852
184804.000			-42.374			-3.852
184904.000			-42.374			-3.852
185004.000			-42.374			-3.852
185105.000			-42.373			-3.852
185204.000			-42.372			-3.852
185304.000			-42.371			-3.852
185405.000			-42.371			-3.852
185503.000			-42.370			-3.852
185604.000			-42.370			-3.852
185704.000			-42.368			-3.852
185804.000			-42.368			-3.852
185904.000			-42.366			-3.851
186005.000			-42.365			-3.851
186104.000			-42.364			-3.851
186204.000			-42.364			-3.851
186305.000			-42.362			-3.851
186403.000			-42.363			-3.851
186504.000			-42.363			-3.851
186604.000			-42.360			-3.851
186704.000			-42.360			-3.851
186804.000			-42.359			-3.851
186905.000			-42.359			-3.851
187004.000			-42.358			-3.851
187104.000			-42.357			-3.851
187205.000			-42.356			-3.851
187303.000			-42.356			-3.851
187405.000			-42.355			-3.850
187503.000			-42.353			-3.850
187604.000			-42.352			-3.850
187705.000			-42.351			-3.850
187804.000			-42.351			-3.850
187904.000			-42.350			-3.850
188005.000			-42.348			-3.850
188104.000			-42.348			-3.850
188204.000			-42.347			-3.850
188305.000			-42.347			-3.850
188403.000			-42.347			-3.850
188504.000			-42.346			-3.850
188605.000			-42.345			-3.850
188704.000			-42.344			-3.849
188804.000			-42.342			-3.849
188905.000			-42.342			-3.849
189004.000			-42.341			-3.849
189104.000			-42.341			-3.849
189205.000			-42.340			-3.849
189303.000			-42.338			-3.849
189404.000			-42.337			-3.849
189505.000			-42.336			-3.849
189604.000			-42.336			-3.849
189704.000			-42.336			-3.849
189805.000			-42.335			-3.849
189904.000			-42.334			-3.849
190004.000			-42.333			-3.848
190105.000			-42.333			-3.848
190203.000			-42.332			-3.848
190304.000			-42.331			-3.848
190405.000			-42.330			-3.848
190504.000			-42.329			-3.848
190605.000			-42.328			-3.848
190704.000			-42.328			-3.848
190804.000			-42.326			-3.848
190905.000			-42.327			-3.848
191004.000			-42.325			-3.848
191103.000			-42.324			-3.848
191205.000			-42.323			-3.848
191304.000			-42.323			-3.848
191404.000			-42.322			-3.847
191505.000			-42.321			-3.847
191604.000			-42.320			-3.847
191704.000			-42.319			-3.847
191804.000			-42.320			-3.847
191904.000			-42.319			-3.847
192003.000			-42.317			-3.847
192105.000			-42.317			-3.847
192204.000			-42.317			-3.847
192304.000			-42.315			-3.847
192405.000			-42.314			-3.847
192504.000			-42.314			-3.847
192604.000			-42.313			-3.847
192704.000			-42.311			-3.846
192804.000			-42.310			-3.846
192904.000			-42.309			-3.846
193005.000			-42.310			-3.846
193104.000			-42.310			-3.846
193204.000			-42.308			-3.846
193305.000			-42.308			-3.846
193404.000			-42.307			-3.846
193504.000			-42.305			-3.846
193604.000			-42.305			-3.846
193704.000			-42.304			-3.846
193805.000			-42.304			-3.846
193904.000			-42.301			-3.846
194004.000			-42.301			-3.846
194105.000			-42.301			-3.846
194204.000			-42.300			-3.845
194304.000			-42.300			-3.845
194405.000			-42.299			-3.845
194503.000			-42.298			-3.845
194604.000			-42.297			-3.845
194705.000			-42.296			-3.845
194804.000			-42.296			-3.845
194904.000			-42.295			-3.845
195005.000			-42.294			-3.845
195104.000			-42.294			-3.845
195204.000			-42.293			-3.845
195305.000			-42.291			-3.845
195403.000			-42.290			-3.845
195504.000			-42.291			-3.845
195605.000			-42.290			-3.845
195704.000			-42.289			-3.844
195804.000			-42.288			-3.844
195905.000			-42.288			-3.844
196004.000			-42.287			-3.844
196104.000			-42.286			-3.844
196205.000			-42.285			-3.844
196303.000			-42.284			-3.844
196404.000			-42.282			-3.844
196504.000			-42.281			-3.844
196604.000			-42.280			-3.844
196704.000			-42.280			-3.844
196805.000			-42.279			-3.844
196904.000			-42.279			-3.844
197005.000			-42.278			-3.843
197104.000			-42.277			-3.843
197204.000			-42.276			-3.843
197305.000			-42.276			-3.843
197403.000			-42.275			-3.843
197504.000			-42.275			-3.843
197605.000			-42.274			-3.843
197704.000			-42.272			-3.843
197804.000			-42.272			-3.843
197905.000			-42.271			-3.843
198004.000			-42.270			-3.843
198104.000			-42.269			-3.843
198205.000			-42.269			-3.843
198303.000			-42.269			-3.843
198404.000			-42.268			-3.843
198505.000			-42.266			-3.842
198604.000			-42.266			-3.842
198704.000			-42.266			-3.842
198805.000			-42.264			-3.842
198904.000			-42.264			-3.842
199004.000			-42.263			-3.842
199105.000			-42.261			-3.842
199203.000			-42.261			-3.842
199304.000			-42.261			-3.842
199404.000			-42.260			-3.842
199504.000			-42.259			-3.842
199604.000			-42.257			-3.842
199705.000			-42.257			-3.842
199804.000			-42.256			-3.841
199904.000			-42.257			-3.842
200005.000			-42.256			-3.841
200103.000			-42.255			-3.841
200205.000			-42.254			-3.841
200303.000			-42.254			-3.841
200404.000			-42.253			-3.841
200505.000			-42.251			-3.841
200604.000			-42.251			-3.841
200704.000			-42.250			-3.841
200805.000			-42.249			-3.841
200904.000			-42.248			-3.841
201003.000			-42.247			-3.841
201105.000			-42.248			-3.841
201204.000			-42.246			-3.841
201304.000			-42.245			-3.840
201405.000			-42.244			-3.840
201504.000			-42.244			-3.840
201604.000			-42.244			-3.840
201704.000			-42.243			-3.840
201804.000			-42.243			-3.840
201903.000			-42.240			-3.840
202005.000			-42.240			-3.840
202104.000			-42.240			-3.840
202204.000			-42.240			-3.840
202305.000			-42.238			-3.840
202404.000			-42.237			-3.840
202504.000			-42.237			-3.840
202604.000			-42.235			-3.840
202704.000			-42.235			-3.840
202804.000			-42.235			-3.840
202905.000			-42.234			-3.839
203004.000			-42.233			-3.839
203104.000			-42.232			-3.839
203205.000			-42.231			-3.839
203303.000			-42.230			-3.839
203405.000			-42.229			-3.839
203504.000			-42.230			-3.839
203604.000			-42.229			-3.839
203705.000			-42.228			-3.839
203804.000			-42.226			-3.839
203904.000			-42.225			-3.839
204005.000			-42.225			-3.839
204104.000			-42.224			-3.839
204203.000			-42.223			-3.838
204305.000			-42.223			-3.838
204404.000			-42.223			-3.838
204504.000			-42.222			-3.838
204605.000			-42.221			-3.838
204704.000			-42.220			-3.838
204804.000			-42.220			-3.838
204904.000			-42.219			-3.838
205004.000			-42.217			-3.838
205103.000			-42.217			-3.838
205205.000			-42.216			-3.838
205304.000			-42.215			-3.838
205404.000			-42.215			-3.838
205505.000			-42.214			-3.838
205604.000			-42.213			-3.838
205704.000			-42.213			-3.838
205804.000			-42.213			-3.838
205904.000			-42.212			-3.837
206004.000			-42.211			-3.837
206105.000			-42.210			-3.837
206204.000			-42.208			-3.837
206304.000			-42.207			-3.837
206405.000			-42.207			-3.837
206503.000			-42.208			-3.837
206605.000			-42.207			-3.837
206704.000			-42.206			-3.837
206804.000			-42.205			-3.837
206905.000			-42.203			-3.837
207004.000			-42.203			-3.837
207104.000			-42.202			-3.837
207205.000			-42.202			-3.837
207304.000			-42.201			-3.836
207403.000			-42.200			-3.836
207505.000			-42.200			-3.836
207604.000			-42.199			-3.836
207704.000			-42.198			-3.836
207805.000			-42.198			-3.836
207904.000			-42.197			-3.836
208004.000			-42.196			-3.836
208104.000			-42.195			-3.836
208204.000			-42.195			-3.836
208303.000			-42.193			-3.836
208405.000			-42.193			-3.836
208504.000			-42.192			-3.836
208604.000			-42.191			-3.836
208705.000			-42.191			-3.836
208804.000			-42.190			-3.835
208904.000			-42.189			-3.835
209004.000			-42.189			-3.835
209104.000			-42.187			-3.835
209203.000			-42.187			-3.835
209305.000			-42.185			-3.835
209404.000			-42.184			-3.835
209504.000			-42.184			-3.835
209605.000			-42.182			-3.835
209704.000			-42.183			-3.835
209805.000			-42.183			-3.835
209903.000			-42.181			-3.835
210004.000			-42.181			-3.835
210105.000			-42.180			-3.835
210204.000			-42.179			-3.834
210304.000			-42.178			-3.834
210405.000			-42.177			-3.834
210504.000			-42.177			-3.834
210604.000			-42.175			-3.834
210705.000			-42.175			-3.834
210803.000			-42.175			-3.834
210904.000			-42.175			-3.834
211005.000			-42.174			-3.834
211104.000			-42.173			-3.834
211204.000			-42.172			-3.834
211305.000			-42.173			-3.834
211404.000			-42.171			-3.834
211503.000			-42.171			-3.834
211605.000			-42.170			-3.834
211704.000			-42.169			-3.834
211804.000			-42.168			-3.833
211905.000			-42.167			-3.833
212004.000			-42.167			-3.833
212104.000			-42.165			-3.833
212205.000			-42.164			-3.833
212304.000			-42.165			-3.833
212403.000			-42.164			-3.833
212505.000			-42.163			-3.833
212604.000			-42.162			-3.833
212704.000			-42.162			-3.833
212805.000			-42.160			-3.833
212904.000			-42.159			-3.833
213005.000			-42.159			-3.833
213103.000			-42.159			-3.833
213204.000			-42.159			-3.833
213304.000			-42.158			-3.833
213404.000			-42.157			-3.832
213504.000			-42.156			-3.832
213605.000			-42.156			-3.832
213704.000			-42.155			-3.832
213804.000			-42.154			-3.832
213905.000			-42.153			-3.832
214003.000			-42.153			-3.832
214104.000			-42.153			-3.832
214205.000			-42.152			-3.832
214304.000			-42.151			-3.832
214404.000			-42.150			-3.832
214505.000			-42.148			-3.832
214604.000			-42.148			-3.832
214703.000			-42.148			-3.832
214805.000			-42.147			-3.832
214903.000			-42.147			-3.832
215004.000			-42.145			-3.831
215105.000			-42.145			-3.831
215204.000			-42.144			-3.831
215304.000			-42.143			-3.831
215405.000			-42.143			-3.831
215504.000			-42.143			-3.831
215603.000			-42.143			-3.831
215705.000			-42.140			-3.831
215804.000			-42.140			-3.831
215904.000			-42.139			-3.831
216005.000			-42.138			-3.831
216104.000			-42.137			-3.831
216205.000			-42.137			-3.831
216304.000			-42.137			-3.831
216404.000			-42.135			-3.830
216504.000			-42.134			-3.830
216604.000			-42.133			-3.830
216704.000			-42.133			-3.830
216805.000			-42.132			-3.830
216904.000			-42.131			-3.830
217004.000			-42.132			-3.830
217105.000			-42.131			-3.830
217203.000			-42.130			-3.830
217304.000			-42.129			-3.830
217404.000			-42.128			-3.830
217504.000			-42.128			-3.830
217604.000			-42.128			-3.830
217705.000			-42.128			-3.830
217804.000			-42.126			-3.830
217904.000			-42.125			-3.830
218005.000			-42.124			-3.829
218103.000			-42.123			-3.829
218204.000			-42.123			-3.829
218305.000			-42.123			-3.829
218404.000			-42.123			-3.829
218504.000			-42.122			-3.829
218605.000			-42.119			-3.829
218704.000			-42.119			-3.829
218804.000			-42.118			-3.829
218905.000			-42.119			-3.829
219003.000			-42.119			-3.829
219104.000			-42.118			-3.829
219205.000			-42.117			-3.829
219304.000			-42.114			-3.829
219405.000			-42.115			-3.829
219504.000			-42.115			-3.829
219604.000			-42.114			-3.829
219704.000			-42.112			-3.828
219804.000			-42.112			-3.828
219903.000			-42.113			-3.828
220005.000			-42.110			-3.828
220104.000			-42.109			-3.828
220204.000			-42.110			-3.828
220305.000			-42.109			-3.828
220404.000			-42.109			-3.828
220504.000			-42.107			-3.828
220604.000			-42.107			-3.828
220704.000			-42.106			-3.828
220804.000			-42.104			-3.828
220905.000			-42.104			-3.828
221004.000			-42.104			-3.828
221104.000			-42.103			-3.828
221205.000			-42.102			-3.827
221303.000			-42.102			-3.827
221404.000			-42.102			-3.827
221505.000			-42.100			-3.827
221604.000			-42.099			-3.827
221704.000			-42.098			-3.827
221805.000			-42.097			-3.827
221904.000			-42.097			-3.827
222003.000			-42.096			-3.827
222105.000			-42.097			-3.827
222204.000			-42.097			-3.827
222304.000			-42.096			-3.827
222405.000			-42.094			-3.827
222504.000			-42.094			-3.827
222605.000			-42.094			-3.827
222704.000			-42.092			-3.827
222804.000			-42.090			-3.826
222904.000			-42.091			-3.826
223004.000			-42.089			-3.826
223104.000			-42.089			-3.826
223205.000			-42.089			-3.826
223304.000			-42.088			-3.826
223404.000			-42.087			-3.826
223505.000			-42.086			-3.826
223604.000			-42.087			-3.826
223704.000			-42.085			-3.826
223804.000			-42.085			-3.826
223904.000			-42.084			-3.826
224004.000			-42.084			-3.826
224105.000			-42.082			-3.826
224204.000			-42.082			-3.826
224304.000			-42.081			-3.826
224405.000			-42.080			-3.825
224503.000			-42.080			-3.825
224604.000			-42.079			-3.825
224704.000			-42.079			-3.825
224804.000			-42.078			-3.825
224904.000			-42.077			-3.825
225005.000			-42.076			-3.825
225104.000			-42.074			-3.825
225204.000			-42.074			-3.825
225305.000			-42.074			-3.825
225403.000			-42.072			-3.825
225504.000			-42.072			-3.825
225605.000			-42.073			-3.825
225704.000			-42.072			-3.825
225805.000			-42.071			-3.825
225904.000			-42.071			-3.825
226004.000			-42.071			-3.825
226105.000			-42.069			-3.824
226204.000			-42.069			-3.824
226303.000			-42.068			-3.824
226405.000			-42.066			-3.824
226504.000			-42.066			-3.824
226604.000			-42.065			-3.824
226705.000			-42.066			-3.824
226804.000			-42.064			-3.824
226904.000			-42.063			-3.824
227005.000			-42.062			-3.824
227104.000			-42.062			-3.824
227203.000			-42.062			-3.824
227305.000			-42.060			-3.824
227404.000			-42.060			-3.824
227504.000			-42.059			-3.824
227605.000			-42.059			-3.824
227704.000			-42.059			-3.824
227804.000			-42.059			-3.824
227904.000			-42.058			-3.823
228004.000			-42.056			-3.823
228103.000			-42.055			-3.823
228205.000			-42.055			-3.823
228304.000			-42.054			-3.823
228404.000			-42.053			-3.823
228505.000			-42.052			-3.823
228604.000			-42.052			-3.823
228704.000			-42.053			-3.823
228804.000			-42.051			-3.823
228904.000			-42.050			-3.823
229005.000			-42.050			-3.823
229104.000			-42.049			-3.823
229204.000			-42.049			-3.823
229305.000			-42.048			-3.823
229404.000			-42.047			-3.822
229504.000			-42.046			-3.822
229605.000			-42.045			-3.822
229703.000			-42.045			-3.822
229804.000			-42.044			-3.822
229905.000			-42.043			-3.822
230004.000			-42.043			-3.822
230104.000			-42.042			-3.822
230205.000			-42.042			-3.822
230304.000			-42.042			-3.822
230403.000			-42.041			-3.822
230505.000			-42.039			-3.822
230604.000			-42.038			-3.822
230704.000			-42.039			-3.822
230805.000			-42.038			-3.822
230904.000			-42.037			-3.822
231004.000			-42.036			-3.821
231105.000			-42.036			-3.821
231204.000			-42.035			-3.821
231303.000			-42.035			-3.821
231405.000			-42.035			-3.821
231504.000			-42.034			-3.821
231604.000			-42.033			-3.821
231705.000			-42.031			-3.821
231804.000			-42.031			-3.821
231904.000			-42.030			-3.821
232004.000			-42.029			-3.821
232104.000			-42.028			-3.821
232203.000			-42.028			-3.821
232304.000			-42.027			-3.821
232404.000			-42.027			-3.821
232505.000			-42.027			-3.821
232604.000			-42.026			-3.821
232704.000			-42.024			-3.820
232805.000			-42.024			-3.820
232903.000			-42.024			-3.820
233004.000			-42.024			-3.820
233105.000			-42.023			-3.820
233204.000			-42.021			-3.820
233304.000			-42.020			-3.820
233405.000			-42.020			-3.820
233504.000			-42.019			-3.820
233603.000			-42.020			-3.820
233705.000			-42.019			-3.820
233803.000			-42.018			-3.820
233904.000			-42.017			-3.820
234005.000			-42.016			-3.820
234104.000			-42.015			-3.820
234204.000			-42.014			-3.819
234305.000			-42.014			-3.819
234404.000			-42.013			-3.819
234503.000			-42.014			-3.819
234605.000			-42.013			-3.819
234704.000			-42.012			-3.819
234804.000			-42.012			-3.819
234905.000			-42.010			-3.819
235004.000			-42.008			-3.819
235104.000			-42.008			-3.819
235205.000			-42.008			-3.819
235304.000			-42.008			-3.819
235403.000			-42.007			-3.819
235504.000			-42.007			-3.819
235604.000			-42.006			-3.819
235705.000			-42.006			-3.819
235804.000			-42.005			-3.819
235904.000			-42.005			-3.819
236005.000			-42.003			-3.818
236104.000			-42.002			-3.818
236204.000			-42.002			-3.818
236304.000			-42.001			-3.818
236404.000			-42.001			-3.818
236504.000			-42.000			-3.818
236605.000			-42.000			-3.818
236704.000			-41.999			-3.818
236804.000			-41.998			-3.818
236905.000			-41.998			-3.818
237003.000			-41.997			-3.818
237104.000			-41.996			-3.818
237204.000			-41.996			-3.818
237304.000			-41.995			-3.818
237404.000			-41.996			-3.818
237505.000			-41.994			-3.818
237604.000			-41.994			-3.818
237704.000			-41.994			-3.818
237805.000			-41.993			-3.818
237903.000			-41.992			-3.817
238004.000			-41.990			-3.817
238104.000			-41.990			-3.817
238204.000			-41.989			-3.817
238304.000			-41.989			-3.817
238405.000			-41.989			-3.817
238504.000			-41.989			-3.817
238605.000			-41.988			-3.817
238704.000			-41.987			-3.817
238804.000			-41.986			-3.817
238905.000			-41.986			-3.817
239003.000			-41.985			-3.817
239104.000			-41.983			-3.817
239205.000			-41.983			-3.817
239304.000			-41.984			-3.817
239404.000			-41.983			-3.817
239505.000			-41.981			-3.816
239604.000			-41.982			-3.817
239704.000			-41.980			-3.816
239805.000			-41.980			-3.816
239903.000			-41.979			-3.816
240004.000			-41.977			-3.816
240104.000			-41.977			-3.816
240204.000			-41.977			-3.816
240304.000			-41.977			-3.816
240405.000			-41.975			-3.816
240504.000			-41.975			-3.816
240604.000			-41.975			-3.816
240705.000			-41.974			-3.816
240803.000			-41.974			-3.816
240904.000			-41.973			-3.816
241004.000			-41.972			-3.816
241104.000			-41.971			-3.816
241204.000			-41.971			-3.816
241305.000			-41.970			-3.815
241404.000			-41.969			-3.815
241504.000			-41.969			-3.815
241605.000			-41.968			-3.815
241703.000			-41.967			-3.815
241805.000			-41.967			-3.815
241903.000			-41.966			-3.815
242004.000			-41.965			-3.815
242105.000			-41.965			-3.815
242204.000			-41.965			-3.815
242304.000			-41.964			-3.815
242405.000			-41.964			-3.815
242504.000			-41.962			-3.815
242603.000			-41.961			-3.815
242705.000			-41.960			-3.815
242803.000			-41.959			-3.814
242904.000			-41.960			-3.815
243005.000			-41.960			-3.815
243104.000			-41.959			-3.814
243204.000			-41.958			-3.814
243305.000			-41.957			-3.814
243404.000			-41.955			-3.814
243503.000			-41.956			-3.814
243605.000			-41.957			-3.814
243703.000			-41.956			-3.814
243804.000			-41.954			-3.814
243905.000			-41.955			-3.814
244004.000			-41.952			-3.814
244104.000			-41.952			-3.814
244205.000			-41.952			-3.814
244304.000			-41.951			-3.814
244403.000			-41.950			-3.814
244505.000			-41.951			-3.814
244603.000			-41.950			-3.814
244704.000			-41.949			-3.814
244805.000			-41.948			-3.813
244904.000			-41.947			-3.813
245005.000			-41.946			-3.813
245104.000			-41.946			-3.813
245204.000			-41.946			-3.813
245304.000			-41.946			-3.813
245404.000			-41.945			-3.813
245503.000			-41.944			-3.813
245605.000			-41.943			-3.813
245704.000			-41.942			-3.813
245804.000			-41.941			-3.813
245905.000			-41.941			-3.813
246004.000			-41.941			-3.813
246104.000			-41.940			-3.813
246204.000			-41.940			-3.813
246304.000			-41.939			-3.813
246403.000			-41.938			-3.813
246505.000			-41.937			-3.812
246604.000			-41.936			-3.812
246704.000			-41.935			-3.812
246805.000			-41.935			-3.812
246904.000			-41.935			-3.812
247004.000			-41.934			-3.812
247104.000			-41.933			-3.812
247204.000			-41.932			-3.812
247303.000			-41.932			-3.812
247405.000			-41.931			-3.812
247504.000			-41.931			-3.812
247604.000			-41.931			-3.812
247705.000			-41.930			-3.812
247804.000			-41.930			-3.812
247904.000			-41.929			-3.812
248004.000			-41.929			-3.812
248104.000			-41.928			-3.812
248203.000			-41.928			-3.812
248304.000			-41.927			-3.812
248404.000			-41.925			-3.811
248505.000			-41.924			-3.811
248604.000			-41.925			-3.811
248704.000			-41.924			-3.811
248805.000			-41.923			-3.811
248904.000			-41.924			-3.811
249004.000			-41.922			-3.811
249104.000			-41.921			-3.811
249204.000			-41.922			-3.811
249304.000			-41.921			-3.811
249405.000			-41.920			-3.811
249504.000			-41.920			-3.811
249604.000			-41.919			-3.811
249705.000			-41.917			-3.811
249804.000			-41.916			-3.811
249904.000			-41.916			-3.811
250004.000			-41.915			-3.810
250104.000			-41.915			-3.810
250204.000			-41.915			-3.810
250305.000			-41.914			-3.810
250404.000			-41.913			-3.810
250504.000			-41.914			-3.810
250605.000			-41.912			-3.810
250704.000			-41.911			-3.810
250804.000			-41.910			-3.810
250904.000			-41.910			-3.810
251004.000			-41.910			-3.810
251104.000			-41.910			-3.810
251205.000			-41.910			-3.810
251304.000			-41.909			-3.810
251405.000			-41.908			-3.810
251504.000			-41.907			-3.810
251603.000			-41.907			-3.810
251705.000			-41.907			-3.810
251804.000			-41.906			-3.810
251904.000			-41.905			-3.810
252005.000			-41.904			-3.809
252104.000			-41.903			-3.809
252204.000			-41.902			-3.809
252305.000			-41.902			-3.809
252404.000			-41.902			-3.809
252503.000			-41.900			-3.809
252605.000			-41.900			-3.809
252704.000			-41.901			-3.809
252804.000			-41.899			-3.809
252905.000			-41.898			-3.809
253004.000			-41.898			-3.809
253104.000			-41.898			-3.809
253205.000			-41.897			-3.809
253304.000			-41.896			-3.809
253403.000			-41.896			-3.809
253505.000			-41.894			-3.809
253604.000			-41.894			-3.809
253704.000			-41.895			-3.809
253805.000			-41.894			-3.809
253904.000			-41.893			-3.808
254004.000			-41.892			-3.808
254105.000			-41.892			-3.808
254204.000			-41.891			-3.808
254303.000			-41.889			-3.808
254405.000			-41.889			-3.808
254503.000			-41.889			-3.808
254605.000			-41.889			-3.808
254704.000			-41.889			-3.808
254804.000			-41.887			-3.808
254905.000			-41.887			-3.808
255004.000			-41.885			-3.808
255104.000			-41.885			-3.808
255205.000			-41.884			-3.808
255304.000			-41.884			-3.808
255403.000			-41.885			-3.808
255505.000			-41.884			-3.808
255604.000			-41.883			-3.808
255704.000			-41.882			-3.807
255805.000			-41.881			-3.807
255904.000			-41.881			-3.807
256004.000			-41.880			-3.807
256105.000			-41.880			-3.807
256204.000			-41.879			-3.807
256303.000			-41.878			-3.807
256405.000			-41.878			-3.807
256503.000			-41.878			-3.807
256604.000			-41.877			-3.807
256705.000			-41.876			-3.807
256804.000			-41.875			-3.807
256904.000			-41.875			-3.807
257005.000			-41.875			-3.807
257104.000			-41.874			-3.807
257203.000			-41.873			-3.807
257305.000			-41.872			-3.807
257403.000			-41.872			-3.807
257504.000			-41.871			-3.806
257605.000			-41.870			-3.806
257704.000			-41.870			-3.806
257805.000			-41.870			-3.806
257904.000			-41.869			-3.806
258004.000			-41.868			-3.806
258105.000			-41.868			-3.806
258204.000			-41.867			-3.806
258303.000			-41.866			-3.806
258405.000			-41.866			-3.806
258504.000			-41.866			-3.806
258604.000			-41.866			-3.806
258705.000			-41.864			-3.806
258804.000			-41.863			-3.806
258904.000			-41.863			-3.806
259005.000			-41.862			-3.806
259104.000			-41.862			-3.806
259203.000			-41.861			-3.806
259305.000			-41.860			-3.805
259404.000			-41.860			-3.805
259504.000			-41.858			-3.805
259605.000			-41.859			-3.805
259704.000			-41.859			-3.805
259804.000			-41.858			-3.805
259905.000			-41.857			-3.805
260004.000			-41.858			-3.805
260103.000			-41.856			-3.805
260205.000			-41.855			-3.805
260303.000			-41.855			-3.805
260404.000			-41.855			-3.805
260505.000			-41.854			-3.805
260604.000			-41.853			-3.805
260704.000			-41.851			-3.805
260805.000			-41.852			-3.805
260904.000			-41.851			-3.805
261005.000			-41.851			-3.805
261104.000			-41.851			-3.805
261203.000			-41.850			-3.805
261305.000			-41.849			-3.804
261404.000			-41.848			-3.804
261504.000			-41.847			-3.804
261605.000			-41.847			-3.804
261704.000			-41.847			-3.804
261804.000			-41.847			-3.804
261904.000			-41.846			-3.804
262004.000			-41.845			-3.804
262103.000			-41.844			-3.804
262205.000			-41.843			-3.804
262304.000			-41.842			-3.804
262404.000			-41.842			-3.804
262505.000			-41.841			-3.804
262604.000			-41.840			-3.804
262704.000			-41.840			-3.804
262804.000			-41.841			-3.804
262904.000			-41.840			-3.804
263003.000			-41.839			-3.804
263105.000			-41.839			-3.804
263204.000			-41.838			-3.803
263304.000			-41.837			-3.803
263405.000			-41.836			-3.803
263504.000			-41.837			-3.803
263604.000			-41.836			-3.803
263704.000			-41.835			-3.803
263804.000			-41.835			-3.803
263903.000			-41.835			-3.803
264005.000			-41.834			-3.803
264104.000			-41.833			-3.803
264205.000			-41.832			-3.803
264304.000			-41.832			-3.803
264404.000			-41.831			-3.803
264505.000			-41.830			-3.803
264603.000			-41.830			-3.803
264704.000			-41.829			-3.803
264805.000			-41.828			-3.803
264904.000			-41.828			-3.803
265004.000			-41.828			-3.803
265105.000			-41.826			-3.802
265204.000			-41.825			-3.802
265304.000			-41.826			-3.802
265405.000			-41.825			-3.802
265503.000			-41.824			-3.802
265604.000			-41.825			-3.802
265704.000			-41.824			-3.802
265804.000			-41.824			-3.802
265904.000			-41.822			-3.802
266005.000			-41.822			-3.802
266104.000			-41.822			-3.802
266204.000			-41.821			-3.802
266305.000			-41.821			-3.802
266403.000			-41.820			-3.802
266504.000			-41.820			-3.802
266604.000			-41.817			-3.802
266704.000			-41.817			-3.802
266804.000			-41.818			-3.802
266905.000			-41.817			-3.802
267004.000			-41.816			-3.801
267104.000			-41.816			-3.801
267205.000			-41.816			-3.801
267303.000			-41.815			-3.801
267405.000			-41.815			-3.801
267503.000			-41.814			-3.801
267604.000			-41.812			-3.801
267705.000			-41.811			-3.801
267804.000			-41.811			-3.801
267904.000			-41.810			-3.801
268005.000			-41.811			-3.801
268104.000			-41.810			-3.801
268203.000			-41.809			-3.801
268305.000			-41.808			-3.801
268404.000			-41.807			-3.801
268504.000			-41.807			-3.801
268605.000			-41.807			-3.801
268704.000			-41.806			-3.801
268804.000			-41.806			-3.801
268905.000			-41.804			-3.800
269004.000			-41.804			-3.800
269103.000			-41.803			-3.800
269205.000			-41.804			-3.800
269304.000			-41.804			-3.800
269404.000			-41.803			-3.800
269505.000			-41.801			-3.800
269604.000			-41.801			-3.800
269704.000			-41.801			-3.800
269805.000			-41.800			-3.800
269904.000			-41.799			-3.800
270003.000			-41.799			-3.800
270105.000			-41.799			-3.800
270204.000			-41.797			-3.800
270304.000			-41.797			-3.800
270405.000			-41.796			-3.800
270504.000			-41.796			-3.800
270605.000			-41.795			-3.800
270704.000			-41.795			-3.800
270804.000			-41.795			-3.800
270904.000			-41.795			-3.800
271004.000			-41.792			-3.799
271103.000			-41.792			-3.799
271205.000			-41.792			-3.799
271304.000			-41.792			-3.799
271404.000			-41.791			-3.799
271505.000			-41.790			-3.799
271604.000			-41.790			-3.799
271704.000			-41.789			-3.799
271804.000			-41.788			-3.799
271904.000			-41.786			-3.799
272003.000			-41.787			-3.799
272105.000			-41.787			-3.799
272204.000			-41.786			-3.799
272304.000			-41.785			-3.799
272405.000			-41.785			-3.799
272504.000			-41.785			-3.799
272604.000			-41.784			-3.799
272704.000			-41.784			-3.799
272804.000			-41.784			-3.799
272903.000			-41.782			-3.798
273005.000			-41.782			-3.798
273104.000			-41.780			-3.798
273204.000			-41.780			-3.798
273305.000			-41.780			-3.798
273404.000			-41.779			-3.798
273504.000			-41.779			-3.798
273604.000			-41.779			-3.798
273704.000			-41.778			-3.798
273803.000			-41.777			-3.798
273904.000			-41.777			-3.798
274004.000			-41.778			-3.798
274105.000			-41.778			-3.798
274204.000			-41.776			-3.798
274304.000			-41.775			-3.798
274405.000			-41.775			-3.798
274503.000			-41.774			-3.798
274604.000			-41.773			-3.798
274704.000			-41.773			-3.798
274804.000			-41.771			-3.797
274904.000			-41.771			-3.797
275005.000			-41.771			-3.797
275104.000			-41.771			-3.797
275204.000			-41.771			-3.797
275305.000			-41.770			-3.797
275403.000			-41.769			-3.797
275504.000			-41.768			-3.797
275605.000			-41.768			-3.797
275704.000			-41.768			-3.797
275804.000			-41.768			-3.797
275905.000			-41.767			-3.797
276004.000			-41.766			-3.797
276104.000			-41.765			-3.797
276205.000			-41.764			-3.797
276303.000			-41.763			-3.797
276404.000			-41.763			-3.797
276504.000			-41.763			-3.797
276604.000			-41.764			-3.797
276704.000			-41.762			-3.797
276805.000			-41.761			-3.796
276904.000			-41.760			-3.796
277005.000			-41.760			-3.796
277104.000			-41.760			-3.796
277203.000			-41.759			-3.796
277305.000			-41.759			-3.796
277403.000			-41.759			-3.796
277504.000			-41.757			-3.796
277605.000			-41.755			-3.796
277704.000			-41.755			-3.796
277804.000			-41.756			-3.796
277905.000			-41.755			-3.796
278004.000			-41.754			-3.796
278104.000			-41.754			-3.796
278205.000			-41.754			-3.796
278303.000			-41.753			-3.796
278404.000			-41.752			-3.796
278505.000			-41.751			-3.796
278604.000			-41.751			-3.796
278704.000			-41.751			-3.796
278805.000			-41.750			-3.795
278904.000			-41.749			-3.795
279004.000			-41.749			-3.795
279105.000			-41.749			-3.795
279203.000			-41.749			-3.795
279304.000			-41.748			-3.795
279405.000			-41.746			-3.795
279504.000			-41.747			-3.795
279604.000			-41.747			-3.795
279705.000			-41.746			-3.795
279804.000			-41.745			-3.795
279904.000			-41.744			-3.795
280005.000			-41.744			-3.795
280103.000			-41.742			-3.795
280205.000			-41.742			-3.795
280304.000			-41.742			-3.795
280404.000			-41.741			-3.795
280505.000			-41.740			-3.795
280604.000			-41.740			-3.795
280704.000			-41.740			-3.795
280805.000			-41.740			-3.795
280904.000			-41.740			-3.795
281003.000			-41.738			-3.794
281105.000			-41.738			-3.794
281204.000			-41.736			-3.794
281304.000			-41.736			-3.794
281405.000			-41.736			-3.794
281504.000			-41.736			-3.794
281604.000			-41.736			-3.794
281705.000			-41.736			-3.794
281804.000			-41.735			-3.794
281903.000			-41.734			-3.794
282005.000			-41.733			-3.794
282104.000			-41.733			-3.794
282204.000			-41.732			-3.794
282305.000			-41.732			-3.794
282404.000			-41.732			-3.794
282504.000			-41.730			-3.794
282604.000			-41.729			-3.794
282704.000			-41.729			-3.794
282803.000			-41.729			-3.794
282905.000			-41.728			-3.793
283004.000			-41.727			-3.793
283104.000			-41.726			-3.793
283205.000			-41.726			-3.793
283304.000			-41.726			-3.793
283405.000			-41.725			-3.793
283503.000			-41.725			-3.793
283604.000			-41.725			-3.793
283705.000			-41.724			-3.793
283804.000			-41.724			-3.793
283904.000			-41.724			-3.793
284005.000			-41.723			-3.793
284104.000			-41.722			-3.793
284204.000			-41.721			-3.793
284305.000			-41.720			-3.793
284403.000			-41.719			-3.793
284504.000			-41.719			-3.793
284605.000			-41.719			-3.793
284704.000			-41.719			-3.793
284804.000			-41.719			-3.793
284905.000			-41.717			-3.792
285004.000			-41.717			-3.792
285104.000			-41.717			-3.792
285205.000			-41.717			-3.792
285303.000			-41.717			-3.792
285404.000			-41.716			-3.792
285505.000			-41.714			-3.792
285604.000			-41.713			-3.792
285704.000			-41.713			-3.792
285805.000			-41.712			-3.792
285904.000			-41.712			-3.792
286004.000			-41.711			-3.792
286105.000			-41.711			-3.792
286203.000			-41.711			-3.792
286304.000			-41.708			-3.792
286405.000			-41.709			-3.792
286504.000			-41.709			-3.792
286605.000			-41.709			-3.792
286704.000			-41.708			-3.792
286804.000			-41.707			-3.792
286905.000			-41.706			-3.791
287004.000			-41.706			-3.791
287103.000			-41.704			-3.791
287205.000			-41.704			-3.791
287304.000			-41.705			-3.791
287404.000			-41.704			-3.791
287505.000			-41.704			-3.791
287604.000			-41.703			-3.791
287704.000			-41.703			-3.791
287805.000			-41.702			-3.791
287904.000			-41.701			-3.791
288003.000			-41.701			-3.791
288105.000			-41.701			-3.791
288204.000			-41.700			-3.791
288304.000			-41.700			-3.791
288405.000			-41.698			-3.791
288504.000			-41.697			-3.791
288604.000			-41.697			-3.791
288705.000			-41.697			-3.791
288804.000			-41.697			-3.791
288903.000			-41.696			-3.791
289005.000			-41.694			-3.790
289104.000			-41.694			-3.790
289204.000			-41.694			-3.790
289305.000			-41.694			-3.790
289404.000			-41.694			-3.790
289504.000			-41.693			-3.790
289605.000			-41.693			-3.790
289704.000			-41.693			-3.790
289803.000			-41.693			-3.790
289904.000			-41.691			-3.790
290004.000			-41.691			-3.790
290105.000			-41.689			-3.790
290204.000			-41.689			-3.790
290304.000			-41.689			-3.790
290405.000			-41.689			-3.790
290504.000			-41.687			-3.790
290604.000			-41.687			-3.790
290704.000			-41.686			-3.790
290804.000			-41.686			-3.790
290903.000			-41.686			-3.790
291005.000			-41.685			-3.790
291104.000			-41.684			-3.789
291204.000			-41.684			-3.789
291305.000			-41.683			-3.789
291404.000			-41.683			-3.789
291504.000			-41.682			-3.789
291604.000			-41.682			-3.789
291704.000			-41.680			-3.789
291804.000			-41.680			-3.789
291905.000			-41.680			-3.789
292004.000			-41.679			-3.789
292104.000			-41.679			-3.789
292205.000			-41.679			-3.789
292304.000			-41.678			-3.789
292404.000			-41.677			-3.789
292504.000			-41.677			-3.789
292604.000			-41.677			-3.789
292703.000			-41.677			-3.789
292805.000			-41.675			-3.789
292904.000			-41.675			-3.789
293005.000			-41.675			-3.789
293104.000			-41.673			-3.788
293204.000			-41.673			-3.788
293305.000			-41.674			-3.789
293403.000			-41.673			-3.788
293504.000			-41.672			-3.788
293604.000			-41.671			-3.788
293704.000			-41.670			-3.788
293804.000			-41.670			-3.788
293905.000			-41.670			-3.788
294004.000			-41.669			-3.788
294104.000			-41.669			-3.788
294205.000			-41.668			-3.788
294303.000			-41.668			-3.788
294404.000			-41.667			-3.788
294504.000			-41.667			-3.788
294604.000			-41.666			-3.788
294704.000			-41.666			-3.788
294805.000			-41.666			-3.788
294904.000			-41.665			-3.788
295004.000			-41.664			-3.788
295105.000			-41.663			-3.788
295204.000			-41.664			-3.788
295304.000			-41.664			-3.788
295404.000			-41.662			-3.787
295504.000			-41.661			-3.787
295604.000			-41.661			-3.787
295705.000			-41.660			-3.787
295804.000			-41.660			-3.787
295904.000			-41.660			-3.787
296005.000			-41.659			-3.787
296104.000			-41.658			-3.787
296205.000			-41.658			-3.787
296303.000			-41.658			-3.787
296404.000			-41.656			-3.787
296505.000			-41.655			-3.787
296604.000			-41.655			-3.787
296704.000			-41.655			-3.787
296805.000			-41.655			-3.787
296904.000			-41.655			-3.787
297004.000			-41.655			-3.787
297105.000			-41.654			-3.787
297203.000			-41.653			-3.787
297304.000			-41.652			-3.787
297405.000			-41.651			-3.786
297504.000			-41.651			-3.786
297604.000			-41.650			-3.786
297705.000			-41.650			-3.786
297804.000			-41.650			-3.786
297904.000			-41.649			-3.786
298005.000			-41.649			-3.786
298103.000			-41.647			-3.786
298204.000			-41.647			-3.786
298304.000			-41.647			-3.786
298404.000			-41.646			-3.786
298504.000			-41.646			-3.786
298605.000			-41.645			-3.786
298704.000			-41.646			-3.786
298804.000			-41.645			-3.786
298905.000			-41.643			-3.786
299003.000			-41.643			-3.786
299104.000			-41.643			-3.786
299204.000			-41.642			-3.786
299304.000			-41.642			-3.786
299405.000			-41.643			-3.786
299504.000			-41.642			-3.786
299604.000			-41.640			-3.785
299705.000			-41.640			-3.785
299804.000			-41.640			-3.785
299904.000			-41.639			-3.785
