# Acquired on 08/01/2024 14:03:26 
# SPIDER: Creep_-2mm_0771453C
# CREEP MEASUREMENT

# time [ms]		force [N]		stiffness [N/mm]
0.000			3.968			-1.984
101.000			4.686			-2.343
200.000			4.975			-2.488
300.000			5.001			-2.500
402.000			4.976			-2.488
500.000			4.959			-2.479
600.000			4.934			-2.467
701.000			4.925			-2.463
800.000			4.915			-2.458
901.000			4.908			-2.454
1000.000			4.902			-2.451
1101.000			4.896			-2.448
1202.000			4.890			-2.445
1300.000			4.880			-2.440
1400.000			4.876			-2.438
1501.000			4.872			-2.436
1600.000			4.867			-2.434
1700.000			4.864			-2.432
1802.000			4.860			-2.430
1901.000			4.858			-2.429
2001.000			4.851			-2.425
2101.000			4.848			-2.424
2200.000			4.845			-2.422
2300.000			4.842			-2.421
2401.000			4.839			-2.420
2500.000			4.837			-2.419
2601.000			4.835			-2.418
2702.000			4.829			-2.415
2800.000			4.828			-2.414
2900.000			4.827			-2.414
3001.000			4.825			-2.413
3100.000			4.823			-2.411
3200.000			4.821			-2.410
3301.000			4.819			-2.409
3401.000			4.817			-2.409
3501.000			4.813			-2.407
3601.000			4.811			-2.406
3700.000			4.810			-2.405
3800.000			4.808			-2.404
3901.000			4.806			-2.403
4000.000			4.806			-2.403
4102.000			4.804			-2.402
4201.000			4.802			-2.401
4300.000			4.800			-2.400
4401.000			4.798			-2.399
4500.000			4.797			-2.399
4600.000			4.795			-2.398
4701.000			4.793			-2.397
4800.000			4.792			-2.396
4901.000			4.790			-2.395
5002.000			4.789			-2.395
5100.000			4.787			-2.394
5200.000			4.786			-2.393
5301.000			4.785			-2.393
5400.000			4.785			-2.393
5500.000			4.784			-2.392
5601.000			4.782			-2.391
5701.000			4.781			-2.390
5801.000			4.780			-2.390
5901.000			4.777			-2.389
6000.000			4.776			-2.388
6100.000			4.775			-2.388
6201.000			4.775			-2.387
6300.000			4.774			-2.387
6400.000			4.772			-2.386
6502.000			4.771			-2.386
6601.000			4.771			-2.385
6700.000			4.769			-2.384
6801.000			4.767			-2.384
6900.000			4.767			-2.384
7000.000			4.767			-2.384
7101.000			4.765			-2.382
7201.000			4.764			-2.382
7302.000			4.763			-2.381
7401.000			4.762			-2.381
7500.000			4.762			-2.381
7601.000			4.761			-2.381
7700.000			4.761			-2.381
7800.000			4.760			-2.380
7901.000			4.758			-2.379
8001.000			4.758			-2.379
8101.000			4.756			-2.378
8201.000			4.755			-2.377
8300.000			4.755			-2.378
8400.000			4.755			-2.378
8501.000			4.753			-2.376
8600.000			4.753			-2.376
8700.000			4.753			-2.377
8802.000			4.751			-2.376
8901.000			4.750			-2.375
9000.000			4.750			-2.375
9101.000			4.749			-2.375
9200.000			4.748			-2.374
9300.000			4.747			-2.374
9401.000			4.746			-2.373
9500.000			4.745			-2.373
9601.000			4.745			-2.372
9702.000			4.744			-2.372
9800.000			4.744			-2.372
9900.000			4.743			-2.372
10001.000			4.743			-2.371
10100.000			4.743			-2.371
10200.000			4.742			-2.371
10301.000			4.742			-2.371
10401.000			4.741			-2.371
10502.000			4.740			-2.370
10600.000			4.740			-2.370
10700.000			4.738			-2.369
10801.000			4.737			-2.368
10900.000			4.736			-2.368
11000.000			4.736			-2.368
11101.000			4.736			-2.368
11201.000			4.735			-2.368
11301.000			4.735			-2.367
11401.000			4.735			-2.367
11500.000			4.735			-2.368
11600.000			4.734			-2.367
11701.000			4.732			-2.366
11800.000			4.731			-2.366
11900.000			4.730			-2.365
12002.000			4.731			-2.365
12101.000			4.730			-2.365
12200.000			4.730			-2.365
12301.000			4.729			-2.364
12400.000			4.729			-2.364
12500.000			4.728			-2.364
12601.000			4.728			-2.364
12700.000			4.728			-2.364
12801.000			4.727			-2.364
12902.000			4.726			-2.363
13000.000			4.725			-2.362
13100.000			4.724			-2.362
13201.000			4.725			-2.362
13300.000			4.724			-2.362
13400.000			4.723			-2.362
13501.000			4.723			-2.361
13601.000			4.722			-2.361
13702.000			4.721			-2.361
13800.000			4.723			-2.361
13900.000			4.723			-2.361
14001.000			4.721			-2.360
14100.000			4.720			-2.360
14200.000			4.719			-2.360
14301.000			4.719			-2.360
14401.000			4.718			-2.359
14501.000			4.718			-2.359
14601.000			4.718			-2.359
14700.000			4.718			-2.359
14800.000			4.717			-2.359
14901.000			4.716			-2.358
15000.000			4.716			-2.358
15100.000			4.716			-2.358
15202.000			4.716			-2.358
15301.000			4.715			-2.358
15400.000			4.715			-2.358
15501.000			4.714			-2.357
15600.000			4.713			-2.357
15700.000			4.713			-2.357
15801.000			4.712			-2.356
15900.000			4.712			-2.356
16001.000			4.712			-2.356
16102.000			4.712			-2.356
16200.000			4.711			-2.356
16300.000			4.712			-2.356
16401.000			4.711			-2.355
16500.000			4.710			-2.355
16600.000			4.709			-2.354
16702.000			4.709			-2.355
16801.000			4.709			-2.355
16902.000			4.709			-2.354
17000.000			4.708			-2.354
17100.000			4.709			-2.354
17201.000			4.707			-2.353
17300.000			4.707			-2.353
17400.000			4.707			-2.354
17501.000			4.707			-2.353
17601.000			4.706			-2.353
17701.000			4.706			-2.353
17801.000			4.706			-2.353
17900.000			4.705			-2.353
18000.000			4.704			-2.352
18101.000			4.704			-2.352
18200.000			4.704			-2.352
18300.000			4.703			-2.352
18402.000			4.702			-2.351
18501.000			4.703			-2.351
18600.000			4.703			-2.351
18701.000			4.702			-2.351
18800.000			4.701			-2.351
18900.000			4.701			-2.351
19001.000			4.700			-2.350
19100.000			4.701			-2.351
19201.000			4.701			-2.351
19302.000			4.700			-2.350
19400.000			4.699			-2.350
19500.000			4.698			-2.349
19601.000			4.699			-2.350
19700.000			4.700			-2.350
19800.000			4.699			-2.349
19901.000			4.697			-2.349
20001.000			4.697			-2.348
20102.000			4.697			-2.348
20200.000			4.697			-2.349
20300.000			4.696			-2.348
20401.000			4.696			-2.348
20500.000			4.696			-2.348
20600.000			4.695			-2.347
20701.000			4.694			-2.347
20801.000			4.694			-2.347
20901.000			4.695			-2.348
21001.000			4.694			-2.347
21100.000			4.694			-2.347
21200.000			4.693			-2.347
21301.000			4.693			-2.346
21400.000			4.692			-2.346
21500.000			4.693			-2.346
21602.000			4.693			-2.347
21701.000			4.694			-2.347
21800.000			4.693			-2.346
21901.000			4.691			-2.345
22000.000			4.690			-2.345
22100.000			4.691			-2.345
22201.000			4.691			-2.345
22300.000			4.690			-2.345
22401.000			4.690			-2.345
22502.000			4.689			-2.345
22600.000			4.690			-2.345
22700.000			4.690			-2.345
22801.000			4.689			-2.344
22900.000			4.689			-2.345
23000.000			4.688			-2.344
23101.000			4.687			-2.344
23201.000			4.689			-2.344
23302.000			4.688			-2.344
23400.000			4.687			-2.344
23500.000			4.686			-2.343
23601.000			4.686			-2.343
23700.000			4.686			-2.343
23800.000			4.686			-2.343
23901.000			4.685			-2.343
24001.000			4.686			-2.343
24101.000			4.686			-2.343
24201.000			4.685			-2.343
24300.000			4.685			-2.342
24400.000			4.685			-2.343
24501.000			4.685			-2.343
24600.000			4.684			-2.342
24700.000			4.684			-2.342
24802.000			4.684			-2.342
24901.000			4.683			-2.342
25001.000			4.684			-2.342
25101.000			4.684			-2.342
25200.000			4.683			-2.342
25300.000			4.683			-2.342
25401.000			4.683			-2.341
25500.000			4.682			-2.341
25601.000			4.682			-2.341
25702.000			4.682			-2.341
25801.000			4.681			-2.341
25900.000			4.681			-2.340
26001.000			4.680			-2.340
26100.000			4.680			-2.340
26200.000			4.680			-2.340
26301.000			4.679			-2.340
26401.000			4.680			-2.340
26502.000			4.679			-2.340
26601.000			4.678			-2.339
26700.000			4.678			-2.339
26801.000			4.679			-2.340
26900.000			4.678			-2.339
27000.000			4.678			-2.339
27101.000			4.678			-2.339
27200.000			4.679			-2.339
27301.000			4.678			-2.339
27402.000			4.677			-2.339
27500.000			4.676			-2.338
27600.000			4.677			-2.338
27701.000			4.677			-2.338
27800.000			4.677			-2.339
27900.000			4.675			-2.338
28001.000			4.676			-2.338
28101.000			4.676			-2.338
28201.000			4.675			-2.338
28301.000			4.675			-2.338
28400.000			4.676			-2.338
28500.000			4.676			-2.338
28601.000			4.676			-2.338
28700.000			4.675			-2.338
28800.000			4.675			-2.338
28902.000			4.674			-2.337
29001.000			4.674			-2.337
29100.000			4.674			-2.337
29201.000			4.674			-2.337
29300.000			4.673			-2.337
29400.000			4.674			-2.337
29501.000			4.674			-2.337
29600.000			4.672			-2.336
29702.000			4.672			-2.336
29801.000			4.672			-2.336
29901.000			4.671			-2.336
30001.000			4.671			-2.335
30100.000			4.670			-2.335
30200.000			4.671			-2.335
30301.000			4.671			-2.336
30400.000			4.672			-2.336
30501.000			4.671			-2.335
30602.000			4.670			-2.335
30701.000			4.669			-2.335
30800.000			4.669			-2.335
30901.000			4.670			-2.335
31000.000			4.669			-2.335
31100.000			4.669			-2.335
31201.000			4.669			-2.335
31301.000			4.669			-2.335
31401.000			4.669			-2.334
31501.000			4.668			-2.334
31600.000			4.668			-2.334
31700.000			4.668			-2.334
31801.000			4.668			-2.334
31900.000			4.668			-2.334
32000.000			4.668			-2.334
32102.000			4.667			-2.334
32201.000			4.667			-2.333
32301.000			4.666			-2.333
32401.000			4.667			-2.333
32500.000			4.667			-2.333
32600.000			4.666			-2.333
32701.000			4.666			-2.333
32800.000			4.666			-2.333
32901.000			4.665			-2.333
33001.000			4.665			-2.333
33101.000			4.666			-2.333
33201.000			4.665			-2.333
33300.000			4.665			-2.333
33400.000			4.665			-2.333
33501.000			4.664			-2.332
33600.000			4.664			-2.332
33700.000			4.665			-2.332
33802.000			4.664			-2.332
33901.000			4.663			-2.332
34000.000			4.663			-2.331
34101.000			4.664			-2.332
34200.000			4.664			-2.332
34300.000			4.664			-2.332
34401.000			4.664			-2.332
34500.000			4.663			-2.332
34601.000			4.662			-2.331
34702.000			4.663			-2.331
34800.000			4.663			-2.331
34900.000			4.662			-2.331
35001.000			4.662			-2.331
35100.000			4.661			-2.331
35200.000			4.662			-2.331
35301.000			4.662			-2.331
35401.000			4.661			-2.331
35501.000			4.661			-2.330
35601.000			4.660			-2.330
35700.000			4.661			-2.331
35800.000			4.662			-2.331
35901.000			4.662			-2.331
36000.000			4.660			-2.330
36101.000			4.661			-2.330
36201.000			4.660			-2.330
36301.000			4.661			-2.330
36401.000			4.661			-2.330
36500.000			4.661			-2.330
36600.000			4.659			-2.329
36701.000			4.659			-2.329
36800.000			4.659			-2.329
36900.000			4.659			-2.330
37002.000			4.659			-2.329
37101.000			4.659			-2.330
37200.000			4.659			-2.330
37301.000			4.658			-2.329
37400.000			4.659			-2.329
37500.000			4.658			-2.329
37601.000			4.658			-2.329
37700.000			4.657			-2.328
37801.000			4.657			-2.328
37902.000			4.657			-2.329
38000.000			4.656			-2.328
38100.000			4.656			-2.328
38201.000			4.657			-2.329
38300.000			4.657			-2.328
38400.000			4.655			-2.328
38501.000			4.655			-2.328
38601.000			4.656			-2.328
38701.000			4.656			-2.328
38801.000			4.655			-2.328
38900.000			4.655			-2.328
39000.000			4.655			-2.327
39101.000			4.655			-2.327
39200.000			4.654			-2.327
39301.000			4.654			-2.327
39401.000			4.653			-2.326
39501.000			4.654			-2.327
39601.000			4.654			-2.327
39700.000			4.654			-2.327
39800.000			4.654			-2.327
39901.000			4.654			-2.327
40000.000			4.653			-2.326
40100.000			4.653			-2.326
40202.000			4.653			-2.327
40301.000			4.654			-2.327
40400.000			4.653			-2.327
40501.000			4.653			-2.326
40600.000			4.652			-2.326
40700.000			4.652			-2.326
40801.000			4.652			-2.326
40900.000			4.652			-2.326
41001.000			4.652			-2.326
41102.000			4.652			-2.326
41200.000			4.651			-2.326
41300.000			4.652			-2.326
41401.000			4.651			-2.326
41500.000			4.650			-2.325
41600.000			4.650			-2.325
41701.000			4.650			-2.325
41801.000			4.650			-2.325
41901.000			4.650			-2.325
42001.000			4.649			-2.324
42100.000			4.649			-2.325
42200.000			4.649			-2.325
42301.000			4.649			-2.325
42400.000			4.649			-2.325
42501.000			4.649			-2.325
42601.000			4.649			-2.325
42701.000			4.648			-2.324
42801.000			4.648			-2.324
42900.000			4.648			-2.324
43000.000			4.648			-2.324
43101.000			4.648			-2.324
43200.000			4.648			-2.324
43300.000			4.648			-2.324
43402.000			4.648			-2.324
43501.000			4.648			-2.324
43600.000			4.647			-2.324
43701.000			4.646			-2.323
43800.000			4.647			-2.323
43900.000			4.647			-2.324
44001.000			4.647			-2.324
44100.000			4.646			-2.323
44201.000			4.646			-2.323
44302.000			4.647			-2.324
44400.000			4.648			-2.324
44500.000			4.647			-2.324
44601.000			4.647			-2.324
44700.000			4.646			-2.323
44800.000			4.645			-2.323
44901.000			4.645			-2.323
45001.000			4.645			-2.322
45101.000			4.645			-2.322
45201.000			4.646			-2.323
45300.000			4.645			-2.322
45400.000			4.645			-2.323
45501.000			4.646			-2.323
45600.000			4.646			-2.323
45701.000			4.645			-2.323
45801.000			4.645			-2.322
45901.000			4.644			-2.322
46001.000			4.645			-2.323
46100.000			4.645			-2.322
46200.000			4.645			-2.322
46301.000			4.643			-2.322
46400.000			4.643			-2.321
46500.000			4.643			-2.322
46602.000			4.643			-2.322
46701.000			4.644			-2.322
46800.000			4.644			-2.322
46901.000			4.644			-2.322
47000.000			4.644			-2.322
47100.000			4.644			-2.322
47201.000			4.642			-2.321
47300.000			4.642			-2.321
47401.000			4.643			-2.321
47502.000			4.643			-2.321
47601.000			4.643			-2.321
47700.000			4.642			-2.321
47801.000			4.642			-2.321
47900.000			4.643			-2.321
48000.000			4.643			-2.321
48101.000			4.641			-2.320
48201.000			4.641			-2.320
48301.000			4.642			-2.321
48402.000			4.641			-2.321
48500.000			4.641			-2.321
48600.000			4.640			-2.320
48701.000			4.640			-2.320
48800.000			4.640			-2.320
48901.000			4.640			-2.320
49000.000			4.640			-2.320
49101.000			4.641			-2.321
49202.000			4.641			-2.320
49300.000			4.640			-2.320
49400.000			4.640			-2.320
49501.000			4.640			-2.320
49600.000			4.640			-2.320
49700.000			4.640			-2.320
49801.000			4.640			-2.320
49901.000			4.639			-2.319
50001.000			4.639			-2.319
50101.000			4.639			-2.319
50200.000			4.640			-2.320
50300.000			4.639			-2.319
50401.000			4.638			-2.319
50500.000			4.638			-2.319
50600.000			4.638			-2.319
50702.000			4.637			-2.319
50801.000			4.637			-2.319
50900.000			4.637			-2.318
51001.000			4.638			-2.319
51100.000			4.638			-2.319
51200.000			4.638			-2.319
51301.000			4.638			-2.319
51400.000			4.637			-2.318
51501.000			4.637			-2.318
51602.000			4.637			-2.318
51700.000			4.637			-2.318
51800.000			4.636			-2.318
51901.000			4.636			-2.318
52000.000			4.637			-2.318
52101.000			4.636			-2.318
52200.000			4.635			-2.318
52301.000			4.636			-2.318
52402.000			4.637			-2.318
52501.000			4.637			-2.318
52600.000			4.636			-2.318
52701.000			4.636			-2.318
52800.000			4.637			-2.319
52900.000			4.637			-2.318
53001.000			4.636			-2.318
53101.000			4.635			-2.318
53201.000			4.635			-2.317
53301.000			4.635			-2.318
53400.000			4.635			-2.318
53500.000			4.636			-2.318
53601.000			4.636			-2.318
53700.000			4.636			-2.318
53800.000			4.635			-2.318
53902.000			4.635			-2.317
54001.000			4.635			-2.317
54100.000			4.635			-2.318
54201.000			4.635			-2.317
54300.000			4.634			-2.317
54400.000			4.634			-2.317
54501.000			4.633			-2.317
54600.000			4.634			-2.317
54701.000			4.633			-2.317
54802.000			4.633			-2.316
54901.000			4.633			-2.316
55000.000			4.634			-2.317
55101.000			4.633			-2.316
55200.000			4.632			-2.316
55301.000			4.632			-2.316
55400.000			4.632			-2.316
55500.000			4.632			-2.316
55602.000			4.632			-2.316
55701.000			4.633			-2.316
55800.000			4.634			-2.317
55901.000			4.633			-2.317
56000.000			4.632			-2.316
56100.000			4.632			-2.316
56201.000			4.634			-2.317
56300.000			4.634			-2.317
56401.000			4.632			-2.316
56502.000			4.632			-2.316
56600.000			4.631			-2.316
56700.000			4.631			-2.316
56801.000			4.632			-2.316
56900.000			4.633			-2.317
57000.000			4.633			-2.317
57101.000			4.632			-2.316
57201.000			4.631			-2.316
57301.000			4.630			-2.315
57401.000			4.630			-2.315
57500.000			4.632			-2.316
57600.000			4.632			-2.316
57701.000			4.631			-2.315
57800.000			4.630			-2.315
57900.000			4.632			-2.316
58002.000			4.633			-2.316
58101.000			4.632			-2.316
58200.000			4.631			-2.315
58301.000			4.631			-2.315
58400.000			4.631			-2.316
58501.000			4.630			-2.315
58600.000			4.631			-2.315
58700.000			4.630			-2.315
58802.000			4.630			-2.315
58901.000			4.630			-2.315
59000.000			4.630			-2.315
59101.000			4.630			-2.315
59200.000			4.630			-2.315
59300.000			4.630			-2.315
59401.000			4.630			-2.315
59500.000			4.630			-2.315
59601.000			4.630			-2.315
59702.000			4.629			-2.315
59800.000			4.630			-2.315
59900.000			4.629			-2.314
60001.000			4.628			-2.314
60100.000			4.628			-2.314
60200.000			4.629			-2.314
60301.000			4.629			-2.314
60401.000			4.628			-2.314
60501.000			4.628			-2.314
60601.000			4.627			-2.314
60700.000			4.626			-2.313
60800.000			4.628			-2.314
60901.000			4.628			-2.314
61000.000			4.627			-2.313
61100.000			4.627			-2.314
61202.000			4.628			-2.314
61301.000			4.629			-2.314
61400.000			4.628			-2.314
61501.000			4.627			-2.313
61600.000			4.627			-2.313
61701.000			4.627			-2.313
61800.000			4.627			-2.314
61900.000			4.627			-2.313
62002.000			4.626			-2.313
62101.000			4.627			-2.313
62201.000			4.627			-2.313
62301.000			4.627			-2.314
62400.000			4.628			-2.314
62500.000			4.628			-2.314
62601.000			4.627			-2.313
62700.000			4.626			-2.313
62800.000			4.627			-2.313
62902.000			4.626			-2.313
63001.000			4.625			-2.312
63100.000			4.626			-2.313
63201.000			4.626			-2.313
63300.000			4.625			-2.313
63400.000			4.624			-2.312
63501.000			4.624			-2.312
63600.000			4.624			-2.312
63701.000			4.625			-2.313
63802.000			4.624			-2.312
63900.000			4.625			-2.313
64000.000			4.625			-2.312
64101.000			4.625			-2.313
64200.000			4.624			-2.312
64300.000			4.625			-2.312
64401.000			4.625			-2.312
64501.000			4.625			-2.313
64601.000			4.625			-2.312
64701.000			4.624			-2.312
64800.000			4.624			-2.312
64901.000			4.624			-2.312
65000.000			4.624			-2.312
65100.000			4.624			-2.312
65201.000			4.624			-2.312
65301.000			4.624			-2.312
65401.000			4.623			-2.312
65501.000			4.622			-2.311
65600.000			4.623			-2.311
65700.000			4.623			-2.312
65801.000			4.624			-2.312
65900.000			4.623			-2.311
66000.000			4.623			-2.312
66102.000			4.623			-2.311
66201.000			4.622			-2.311
66300.000			4.622			-2.311
66401.000			4.623			-2.311
66500.000			4.622			-2.311
66600.000			4.622			-2.311
66701.000			4.622			-2.311
66800.000			4.623			-2.311
66901.000			4.622			-2.311
67002.000			4.622			-2.311
67100.000			4.622			-2.311
67200.000			4.623			-2.312
67301.000			4.622			-2.311
67400.000			4.621			-2.311
67500.000			4.622			-2.311
67601.000			4.621			-2.311
67701.000			4.621			-2.310
67801.000			4.621			-2.310
67901.000			4.622			-2.311
68000.000			4.620			-2.310
68101.000			4.621			-2.310
68200.000			4.621			-2.310
68300.000			4.621			-2.311
68401.000			4.622			-2.311
68501.000			4.622			-2.311
68601.000			4.621			-2.311
68701.000			4.621			-2.310
68800.000			4.621			-2.310
68900.000			4.621			-2.310
69001.000			4.620			-2.310
69100.000			4.620			-2.310
69200.000			4.621			-2.311
69301.000			4.621			-2.310
69401.000			4.620			-2.310
69501.000			4.620			-2.310
69601.000			4.620			-2.310
69700.000			4.620			-2.310
69800.000			4.619			-2.310
69901.000			4.620			-2.310
70000.000			4.619			-2.310
70100.000			4.618			-2.309
70202.000			4.619			-2.309
70301.000			4.619			-2.309
70400.000			4.619			-2.309
70501.000			4.619			-2.309
70600.000			4.618			-2.309
70700.000			4.618			-2.309
70801.000			4.618			-2.309
70900.000			4.619			-2.309
71001.000			4.618			-2.309
71102.000			4.618			-2.309
71200.000			4.618			-2.309
71301.000			4.618			-2.309
71400.000			4.619			-2.309
71500.000			4.618			-2.309
71601.000			4.617			-2.308
71700.000			4.618			-2.309
71801.000			4.618			-2.309
71902.000			4.617			-2.309
72001.000			4.618			-2.309
72100.000			4.618			-2.309
72201.000			4.618			-2.309
72300.000			4.617			-2.309
72400.000			4.618			-2.309
72501.000			4.617			-2.308
72600.000			4.617			-2.309
72701.000			4.617			-2.309
72802.000			4.617			-2.309
72900.000			4.617			-2.309
73000.000			4.618			-2.309
73101.000			4.618			-2.309
73200.000			4.617			-2.309
73300.000			4.617			-2.308
73401.000			4.617			-2.308
73501.000			4.616			-2.308
73601.000			4.616			-2.308
73701.000			4.617			-2.308
73800.000			4.616			-2.308
73900.000			4.615			-2.308
74001.000			4.615			-2.308
74100.000			4.615			-2.308
74200.000			4.615			-2.308
74302.000			4.615			-2.307
74401.000			4.615			-2.307
74501.000			4.614			-2.307
74600.000			4.616			-2.308
74700.000			4.615			-2.307
74801.000			4.614			-2.307
74900.000			4.615			-2.308
75000.000			4.615			-2.307
75102.000			4.615			-2.307
75201.000			4.615			-2.308
75300.000			4.615			-2.307
75401.000			4.615			-2.307
75500.000			4.615			-2.307
75600.000			4.614			-2.307
75701.000			4.614			-2.307
75800.000			4.614			-2.307
75900.000			4.615			-2.307
76002.000			4.614			-2.307
76101.000			4.614			-2.307
76200.000			4.614			-2.307
76301.000			4.614			-2.307
76400.000			4.614			-2.307
76500.000			4.614			-2.307
76601.000			4.614			-2.307
76700.000			4.614			-2.307
76801.000			4.615			-2.307
76902.000			4.614			-2.307
77000.000			4.613			-2.307
77100.000			4.613			-2.307
77201.000			4.613			-2.306
77300.000			4.613			-2.306
77400.000			4.613			-2.306
77501.000			4.614			-2.307
77601.000			4.613			-2.307
77702.000			4.613			-2.307
77800.000			4.613			-2.306
77900.000			4.613			-2.306
78001.000			4.613			-2.306
78100.000			4.612			-2.306
78200.000			4.613			-2.307
78301.000			4.613			-2.307
78401.000			4.613			-2.307
78501.000			4.613			-2.307
78601.000			4.612			-2.306
78700.000			4.611			-2.306
78800.000			4.612			-2.306
78901.000			4.611			-2.306
79000.000			4.612			-2.306
79100.000			4.611			-2.305
79201.000			4.612			-2.306
79301.000			4.612			-2.306
79401.000			4.612			-2.306
79501.000			4.612			-2.306
79600.000			4.612			-2.306
79700.000			4.611			-2.306
79801.000			4.611			-2.306
79900.000			4.611			-2.306
80000.000			4.612			-2.306
80102.000			4.612			-2.306
80201.000			4.611			-2.306
80300.000			4.611			-2.306
80401.000			4.611			-2.306
80500.000			4.610			-2.305
80600.000			4.610			-2.305
80701.000			4.611			-2.306
80800.000			4.611			-2.306
80902.000			4.611			-2.305
81001.000			4.610			-2.305
81100.000			4.610			-2.305
81201.000			4.610			-2.305
81300.000			4.611			-2.306
81400.000			4.610			-2.305
81501.000			4.609			-2.305
81600.000			4.610			-2.305
81701.000			4.611			-2.305
81802.000			4.609			-2.305
81900.000			4.610			-2.305
82000.000			4.611			-2.305
82101.000			4.609			-2.305
82200.000			4.609			-2.305
82300.000			4.609			-2.304
82401.000			4.609			-2.304
82501.000			4.609			-2.304
82601.000			4.609			-2.304
82701.000			4.609			-2.305
82800.000			4.610			-2.305
82900.000			4.609			-2.305
83001.000			4.609			-2.304
83100.000			4.609			-2.305
83200.000			4.609			-2.304
83302.000			4.608			-2.304
83401.000			4.609			-2.304
83500.000			4.609			-2.305
83601.000			4.608			-2.304
83700.000			4.608			-2.304
83800.000			4.609			-2.305
83901.000			4.609			-2.305
84000.000			4.608			-2.304
84101.000			4.608			-2.304
84201.000			4.608			-2.304
84301.000			4.609			-2.304
84401.000			4.608			-2.304
84500.000			4.608			-2.304
84600.000			4.608			-2.304
84701.000			4.608			-2.304
84800.000			4.608			-2.304
84900.000			4.607			-2.304
85002.000			4.608			-2.304
85101.000			4.608			-2.304
85200.000			4.607			-2.304
85301.000			4.608			-2.304
85400.000			4.609			-2.304
85500.000			4.608			-2.304
85601.000			4.607			-2.304
85700.000			4.607			-2.304
85801.000			4.607			-2.303
85902.000			4.607			-2.304
86001.000			4.607			-2.304
86100.000			4.606			-2.303
86201.000			4.608			-2.304
86300.000			4.608			-2.304
86400.000			4.608			-2.304
86501.000			4.607			-2.304
86600.000			4.607			-2.303
86701.000			4.606			-2.303
86802.000			4.607			-2.303
86900.000			4.606			-2.303
87000.000			4.607			-2.303
87101.000			4.607			-2.303
87200.000			4.607			-2.304
87301.000			4.607			-2.303
87400.000			4.606			-2.303
87501.000			4.606			-2.303
87602.000			4.606			-2.303
87701.000			4.606			-2.303
87800.000			4.606			-2.303
87901.000			4.606			-2.303
88000.000			4.606			-2.303
88100.000			4.607			-2.303
88201.000			4.606			-2.303
88300.000			4.606			-2.303
88401.000			4.605			-2.302
88502.000			4.605			-2.303
88600.000			4.606			-2.303
88700.000			4.604			-2.302
88801.000			4.605			-2.302
88900.000			4.605			-2.303
89000.000			4.604			-2.302
89101.000			4.604			-2.302
89201.000			4.604			-2.302
89301.000			4.604			-2.302
89401.000			4.605			-2.302
89500.000			4.605			-2.303
89600.000			4.605			-2.302
89701.000			4.604			-2.302
89800.000			4.604			-2.302
89900.000			4.603			-2.302
90001.000			4.604			-2.302
90101.000			4.605			-2.302
90201.000			4.604			-2.302
90301.000			4.604			-2.302
90400.000			4.605			-2.303
90501.000			4.605			-2.302
90600.000			4.604			-2.302
90700.000			4.604			-2.302
90801.000			4.604			-2.302
90901.000			4.604			-2.302
91001.000			4.603			-2.302
91101.000			4.604			-2.302
91200.000			4.604			-2.302
91300.000			4.604			-2.302
91401.000			4.604			-2.302
91500.000			4.603			-2.302
91600.000			4.603			-2.302
91702.000			4.603			-2.302
91801.000			4.603			-2.301
91900.000			4.603			-2.302
92001.000			4.603			-2.301
92100.000			4.603			-2.301
92200.000			4.603			-2.302
92301.000			4.603			-2.302
92400.000			4.603			-2.301
92501.000			4.603			-2.301
92602.000			4.603			-2.301
92700.000			4.603			-2.302
92800.000			4.602			-2.301
92901.000			4.602			-2.301
93000.000			4.602			-2.301
93100.000			4.602			-2.301
93201.000			4.602			-2.301
93301.000			4.602			-2.301
93401.000			4.602			-2.301
93501.000			4.602			-2.301
93600.000			4.603			-2.302
93701.000			4.603			-2.301
93800.000			4.602			-2.301
93900.000			4.603			-2.301
94001.000			4.602			-2.301
94101.000			4.602			-2.301
94201.000			4.602			-2.301
94301.000			4.602			-2.301
94400.000			4.601			-2.300
94500.000			4.601			-2.300
94601.000			4.601			-2.300
94700.000			4.602			-2.301
94800.000			4.602			-2.301
94902.000			4.601			-2.301
95001.000			4.601			-2.301
95100.000			4.601			-2.301
95201.000			4.601			-2.301
95300.000			4.600			-2.300
95400.000			4.601			-2.301
95501.000			4.602			-2.301
95600.000			4.601			-2.301
95701.000			4.601			-2.301
95802.000			4.600			-2.300
95901.000			4.601			-2.300
96000.000			4.602			-2.301
96101.000			4.601			-2.300
96200.000			4.600			-2.300
96300.000			4.600			-2.300
96401.000			4.600			-2.300
96500.000			4.601			-2.300
96601.000			4.601			-2.301
96702.000			4.601			-2.301
96800.000			4.600			-2.300
96901.000			4.599			-2.300
97000.000			4.599			-2.300
97100.000			4.601			-2.300
97201.000			4.600			-2.300
97300.000			4.599			-2.300
97401.000			4.601			-2.300
97502.000			4.601			-2.300
97601.000			4.600			-2.300
97700.000			4.599			-2.300
97801.000			4.601			-2.300
97900.000			4.600			-2.300
98000.000			4.600			-2.300
98101.000			4.600			-2.300
98200.000			4.600			-2.300
98301.000			4.600			-2.300
98402.000			4.600			-2.300
98500.000			4.598			-2.299
98600.000			4.598			-2.299
98701.000			4.598			-2.299
98800.000			4.599			-2.299
98900.000			4.598			-2.299
99001.000			4.598			-2.299
99100.000			4.598			-2.299
99201.000			4.598			-2.299
99302.000			4.599			-2.300
99400.000			4.598			-2.299
99500.000			4.597			-2.298
99601.000			4.598			-2.299
99700.000			4.598			-2.299
99800.000			4.597			-2.298
99901.000			4.597			-2.299
100001.000			4.598			-2.299
100102.000			4.598			-2.299
100201.000			4.598			-2.299
100300.000			4.598			-2.299
100401.000			4.597			-2.299
100500.000			4.596			-2.298
100600.000			4.597			-2.299
100701.000			4.598			-2.299
100800.000			4.597			-2.299
100901.000			4.597			-2.298
101002.000			4.598			-2.299
101101.000			4.598			-2.299
101200.000			4.597			-2.299
101301.000			4.597			-2.299
101400.000			4.598			-2.299
101500.000			4.597			-2.299
101601.000			4.597			-2.299
101700.000			4.597			-2.298
101801.000			4.597			-2.298
101902.000			4.597			-2.298
102000.000			4.597			-2.299
102100.000			4.597			-2.299
102201.000			4.597			-2.299
102300.000			4.597			-2.299
102400.000			4.596			-2.298
102501.000			4.596			-2.298
102601.000			4.597			-2.299
102701.000			4.596			-2.298
102802.000			4.596			-2.298
102900.000			4.596			-2.298
103000.000			4.596			-2.298
103101.000			4.596			-2.298
103200.000			4.596			-2.298
103301.000			4.596			-2.298
103400.000			4.597			-2.298
103501.000			4.596			-2.298
103602.000			4.596			-2.298
103700.000			4.595			-2.298
103800.000			4.596			-2.298
103901.000			4.595			-2.298
104000.000			4.595			-2.298
104100.000			4.595			-2.298
104201.000			4.596			-2.298
104300.000			4.595			-2.298
104401.000			4.595			-2.298
104502.000			4.595			-2.298
104601.000			4.595			-2.298
104700.000			4.595			-2.298
104801.000			4.595			-2.297
104900.000			4.596			-2.298
105000.000			4.596			-2.298
105101.000			4.594			-2.297
105200.000			4.594			-2.297
105301.000			4.594			-2.297
105402.000			4.595			-2.297
105500.000			4.595			-2.298
105600.000			4.595			-2.297
105701.000			4.594			-2.297
105800.000			4.593			-2.297
105900.000			4.593			-2.296
106001.000			4.593			-2.297
106101.000			4.594			-2.297
106201.000			4.594			-2.297
106302.000			4.594			-2.297
106400.000			4.594			-2.297
106501.000			4.595			-2.297
106600.000			4.594			-2.297
106700.000			4.595			-2.297
106801.000			4.595			-2.297
106900.000			4.594			-2.297
107001.000			4.594			-2.297
107102.000			4.594			-2.297
107201.000			4.593			-2.297
107300.000			4.593			-2.297
107401.000			4.593			-2.297
107500.000			4.593			-2.296
107600.000			4.594			-2.297
107701.000			4.593			-2.297
107800.000			4.594			-2.297
107901.000			4.593			-2.297
108002.000			4.593			-2.297
108100.000			4.592			-2.296
108200.000			4.592			-2.296
108301.000			4.593			-2.297
108400.000			4.593			-2.297
108500.000			4.594			-2.297
108601.000			4.595			-2.297
108700.000			4.593			-2.297
108801.000			4.593			-2.296
108902.000			4.594			-2.297
109000.000			4.593			-2.296
109100.000			4.593			-2.296
109201.000			4.593			-2.296
109300.000			4.593			-2.296
109400.000			4.593			-2.296
109501.000			4.592			-2.296
109601.000			4.592			-2.296
109702.000			4.593			-2.296
109801.000			4.593			-2.296
109900.000			4.592			-2.296
110001.000			4.592			-2.296
110100.000			4.593			-2.296
110200.000			4.593			-2.296
110301.000			4.593			-2.296
110400.000			4.593			-2.296
110501.000			4.593			-2.297
110602.000			4.593			-2.296
110700.000			4.592			-2.296
110800.000			4.592			-2.296
110901.000			4.592			-2.296
111000.000			4.592			-2.296
111100.000			4.592			-2.296
111201.000			4.593			-2.296
111301.000			4.591			-2.296
111401.000			4.592			-2.296
111502.000			4.592			-2.296
111600.000			4.593			-2.296
111700.000			4.592			-2.296
111801.000			4.591			-2.295
111900.000			4.591			-2.295
112000.000			4.591			-2.296
112101.000			4.591			-2.295
112201.000			4.592			-2.296
112301.000			4.591			-2.296
112401.000			4.591			-2.296
112500.000			4.592			-2.296
112600.000			4.591			-2.296
112701.000			4.591			-2.295
112800.000			4.592			-2.296
112901.000			4.592			-2.296
113001.000			4.590			-2.295
113101.000			4.590			-2.295
113201.000			4.591			-2.295
113300.000			4.591			-2.295
113400.000			4.590			-2.295
113501.000			4.589			-2.295
113600.000			4.591			-2.295
113700.000			4.591			-2.295
113801.000			4.590			-2.295
113901.000			4.590			-2.295
114001.000			4.590			-2.295
114101.000			4.590			-2.295
114200.000			4.590			-2.295
114300.000			4.591			-2.295
114401.000			4.591			-2.295
114500.000			4.591			-2.296
114600.000			4.591			-2.295
114702.000			4.590			-2.295
114801.000			4.589			-2.295
114901.000			4.589			-2.295
115001.000			4.590			-2.295
115100.000			4.589			-2.295
115200.000			4.589			-2.294
115301.000			4.589			-2.295
115400.000			4.590			-2.295
115500.000			4.588			-2.294
115602.000			4.588			-2.294
115701.000			4.590			-2.295
115801.000			4.589			-2.294
115901.000			4.589			-2.295
116000.000			4.589			-2.295
116101.000			4.589			-2.295
116200.000			4.590			-2.295
116300.000			4.589			-2.294
116401.000			4.589			-2.294
116501.000			4.590			-2.295
116601.000			4.590			-2.295
116701.000			4.588			-2.294
116800.000			4.588			-2.294
116900.000			4.589			-2.294
117001.000			4.589			-2.295
117100.000			4.588			-2.294
117200.000			4.589			-2.295
117301.000			4.589			-2.295
117401.000			4.589			-2.294
117501.000			4.589			-2.295
117601.000			4.590			-2.295
117700.000			4.588			-2.294
117800.000			4.587			-2.294
117901.000			4.587			-2.294
118000.000			4.587			-2.294
118100.000			4.588			-2.294
118201.000			4.587			-2.294
118301.000			4.587			-2.294
118401.000			4.588			-2.294
118501.000			4.589			-2.294
118600.000			4.588			-2.294
118700.000			4.587			-2.294
118801.000			4.588			-2.294
118900.000			4.588			-2.294
119000.000			4.587			-2.294
119101.000			4.587			-2.293
119201.000			4.588			-2.294
119302.000			4.588			-2.294
119400.000			4.587			-2.294
119500.000			4.588			-2.294
119601.000			4.588			-2.294
119700.000			4.588			-2.294
119800.000			4.588			-2.294
119901.000			4.588			-2.294
120000.000			4.588			-2.294
120101.000			4.588			-2.294
120202.000			4.588			-2.294
120301.000			4.587			-2.294
120400.000			4.587			-2.293
120501.000			4.586			-2.293
120600.000			4.586			-2.293
120700.000			4.587			-2.293
120801.000			4.587			-2.293
120900.000			4.586			-2.293
121001.000			4.587			-2.293
121102.000			4.587			-2.293
121200.000			4.587			-2.293
121300.000			4.587			-2.293
121401.000			4.587			-2.294
121500.000			4.586			-2.293
121600.000			4.586			-2.293
121701.000			4.587			-2.293
121801.000			4.586			-2.293
121901.000			4.587			-2.293
122002.000			4.586			-2.293
122100.000			4.586			-2.293
122200.000			4.586			-2.293
122301.000			4.586			-2.293
122400.000			4.587			-2.293
122501.000			4.587			-2.293
122600.000			4.586			-2.293
122701.000			4.586			-2.293
122802.000			4.586			-2.293
122901.000			4.585			-2.293
123000.000			4.585			-2.293
123101.000			4.586			-2.293
123200.000			4.585			-2.292
123300.000			4.584			-2.292
123401.000			4.585			-2.292
123500.000			4.586			-2.293
123601.000			4.586			-2.293
123702.000			4.586			-2.293
123800.000			4.586			-2.293
123900.000			4.585			-2.293
124001.000			4.585			-2.292
124100.000			4.585			-2.292
124200.000			4.585			-2.293
124301.000			4.585			-2.293
124400.000			4.586			-2.293
124501.000			4.586			-2.293
124602.000			4.585			-2.293
124700.000			4.584			-2.292
124800.000			4.585			-2.292
124901.000			4.586			-2.293
125000.000			4.585			-2.293
125100.000			4.584			-2.292
125201.000			4.584			-2.292
125301.000			4.584			-2.292
125401.000			4.583			-2.292
125502.000			4.584			-2.292
125600.000			4.585			-2.293
125701.000			4.585			-2.293
125800.000			4.585			-2.293
125900.000			4.586			-2.293
126001.000			4.585			-2.292
126100.000			4.584			-2.292
126200.000			4.584			-2.292
126302.000			4.584			-2.292
126401.000			4.584			-2.292
126500.000			4.584			-2.292
126601.000			4.584			-2.292
126700.000			4.584			-2.292
126800.000			4.584			-2.292
126901.000			4.585			-2.292
127000.000			4.585			-2.292
127100.000			4.585			-2.292
127202.000			4.584			-2.292
127301.000			4.584			-2.292
127400.000			4.584			-2.292
127501.000			4.584			-2.292
127600.000			4.583			-2.292
127700.000			4.583			-2.291
127801.000			4.585			-2.292
127900.000			4.585			-2.292
128000.000			4.583			-2.292
128102.000			4.582			-2.291
128201.000			4.583			-2.291
128300.000			4.583			-2.292
128401.000			4.583			-2.292
128500.000			4.583			-2.292
128600.000			4.583			-2.291
128701.000			4.584			-2.292
128800.000			4.584			-2.292
128902.000			4.583			-2.291
129001.000			4.584			-2.292
129101.000			4.583			-2.292
129201.000			4.584			-2.292
129300.000			4.583			-2.292
129400.000			4.583			-2.292
129501.000			4.583			-2.291
129600.000			4.582			-2.291
129700.000			4.583			-2.291
129802.000			4.583			-2.291
129901.000			4.583			-2.291
130001.000			4.582			-2.291
130101.000			4.582			-2.291
130200.000			4.583			-2.292
130300.000			4.583			-2.291
130401.000			4.583			-2.291
130500.000			4.583			-2.291
130600.000			4.583			-2.292
130702.000			4.582			-2.291
130801.000			4.581			-2.291
130900.000			4.582			-2.291
131001.000			4.583			-2.291
131100.000			4.583			-2.292
131200.000			4.582			-2.291
131301.000			4.582			-2.291
131400.000			4.582			-2.291
131500.000			4.581			-2.290
131602.000			4.582			-2.291
131701.000			4.582			-2.291
131800.000			4.582			-2.291
131901.000			4.582			-2.291
132000.000			4.582			-2.291
132101.000			4.581			-2.290
132200.000			4.581			-2.290
132300.000			4.582			-2.291
132401.000			4.582			-2.291
132501.000			4.581			-2.290
132601.000			4.582			-2.291
132702.000			4.582			-2.291
132800.000			4.581			-2.291
132900.000			4.581			-2.291
133001.000			4.582			-2.291
133100.000			4.582			-2.291
133200.000			4.581			-2.291
133301.000			4.581			-2.291
133400.000			4.581			-2.291
133501.000			4.581			-2.290
133602.000			4.581			-2.291
133700.000			4.582			-2.291
133800.000			4.581			-2.291
133901.000			4.581			-2.290
134000.000			4.581			-2.290
134100.000			4.581			-2.290
134201.000			4.581			-2.291
134300.000			4.580			-2.290
134401.000			4.580			-2.290
134502.000			4.581			-2.291
134601.000			4.581			-2.290
134700.000			4.581			-2.290
134801.000			4.581			-2.291
134900.000			4.581			-2.290
135000.000			4.581			-2.290
135101.000			4.581			-2.291
135200.000			4.581			-2.290
135302.000			4.581			-2.290
135401.000			4.580			-2.290
135501.000			4.581			-2.291
135601.000			4.581			-2.291
135700.000			4.580			-2.290
135800.000			4.580			-2.290
135901.000			4.579			-2.290
136000.000			4.580			-2.290
136100.000			4.580			-2.290
136201.000			4.580			-2.290
136301.000			4.581			-2.290
136401.000			4.581			-2.291
136501.000			4.581			-2.290
136600.000			4.580			-2.290
136700.000			4.581			-2.290
136801.000			4.581			-2.290
136900.000			4.580			-2.290
137000.000			4.579			-2.290
137101.000			4.580			-2.290
137201.000			4.581			-2.290
137301.000			4.580			-2.290
137402.000			4.580			-2.290
137500.000			4.579			-2.290
137600.000			4.579			-2.289
137701.000			4.580			-2.290
137800.000			4.580			-2.290
137900.000			4.580			-2.290
138001.000			4.580			-2.290
138100.000			4.580			-2.290
138201.000			4.579			-2.290
138302.000			4.580			-2.290
138401.000			4.579			-2.290
138501.000			4.580			-2.290
138600.000			4.580			-2.290
138700.000			4.580			-2.290
138801.000			4.579			-2.290
138900.000			4.579			-2.289
139000.000			4.579			-2.289
139101.000			4.579			-2.289
139201.000			4.579			-2.290
139301.000			4.580			-2.290
139402.000			4.579			-2.290
139500.000			4.578			-2.289
139600.000			4.579			-2.289
139701.000			4.578			-2.289
139800.000			4.578			-2.289
139900.000			4.579			-2.290
140001.000			4.579			-2.290
140100.000			4.579			-2.289
140201.000			4.578			-2.289
140302.000			4.578			-2.289
140401.000			4.578			-2.289
140500.000			4.577			-2.289
140601.000			4.578			-2.289
140700.000			4.578			-2.289
140800.000			4.579			-2.289
140901.000			4.578			-2.289
141000.000			4.577			-2.289
141100.000			4.577			-2.289
141202.000			4.578			-2.289
141301.000			4.577			-2.289
141400.000			4.578			-2.289
141501.000			4.578			-2.289
141600.000			4.577			-2.289
141701.000			4.578			-2.289
141800.000			4.578			-2.289
141900.000			4.578			-2.289
142001.000			4.578			-2.289
142101.000			4.578			-2.289
142201.000			4.578			-2.289
142302.000			4.577			-2.288
142400.000			4.577			-2.289
142500.000			4.577			-2.289
142601.000			4.577			-2.289
142700.000			4.577			-2.288
142800.000			4.578			-2.289
142901.000			4.577			-2.289
143000.000			4.577			-2.289
143101.000			4.578			-2.289
143202.000			4.578			-2.289
143301.000			4.576			-2.288
143400.000			4.576			-2.288
143501.000			4.577			-2.289
143600.000			4.578			-2.289
143700.000			4.577			-2.289
143801.000			4.577			-2.288
143900.000			4.577			-2.288
144000.000			4.577			-2.288
144102.000			4.577			-2.289
144201.000			4.577			-2.289
144300.000			4.577			-2.288
144401.000			4.577			-2.288
144500.000			4.576			-2.288
144600.000			4.575			-2.288
144701.000			4.576			-2.288
144800.000			4.576			-2.288
144901.000			4.577			-2.288
145001.000			4.578			-2.289
145101.000			4.577			-2.288
145202.000			4.576			-2.288
145300.000			4.577			-2.288
145400.000			4.576			-2.288
145501.000			4.576			-2.288
145600.000			4.577			-2.288
145700.000			4.577			-2.289
145801.000			4.578			-2.289
145900.000			4.577			-2.288
146001.000			4.575			-2.287
146102.000			4.576			-2.288
146201.000			4.575			-2.288
146300.000			4.576			-2.288
146401.000			4.576			-2.288
146500.000			4.576			-2.288
146600.000			4.575			-2.287
146701.000			4.575			-2.287
146800.000			4.576			-2.288
146900.000			4.577			-2.288
147002.000			4.576			-2.288
147101.000			4.577			-2.288
147201.000			4.576			-2.288
147301.000			4.576			-2.288
147400.000			4.576			-2.288
147500.000			4.576			-2.288
147601.000			4.575			-2.288
147700.000			4.576			-2.288
147800.000			4.576			-2.288
147901.000			4.576			-2.288
148001.000			4.576			-2.288
148102.000			4.575			-2.287
148201.000			4.575			-2.287
148300.000			4.575			-2.287
148401.000			4.575			-2.287
148500.000			4.576			-2.288
148600.000			4.575			-2.287
148701.000			4.575			-2.287
148800.000			4.575			-2.288
148900.000			4.575			-2.288
149002.000			4.575			-2.287
149101.000			4.575			-2.287
149200.000			4.575			-2.288
149301.000			4.575			-2.288
149400.000			4.576			-2.288
149500.000			4.575			-2.288
149601.000			4.575			-2.287
149700.000			4.575			-2.288
149800.000			4.574			-2.287
149901.000			4.574			-2.287
150001.000			4.574			-2.287
150101.000			4.575			-2.287
150201.000			4.575			-2.288
150300.000			4.574			-2.287
150400.000			4.573			-2.287
150501.000			4.574			-2.287
150600.000			4.574			-2.287
150700.000			4.575			-2.288
150801.000			4.575			-2.287
150901.000			4.573			-2.287
151001.000			4.574			-2.287
151101.000			4.574			-2.287
151200.000			4.574			-2.287
151301.000			4.574			-2.287
151400.000			4.573			-2.287
151500.000			4.574			-2.287
151601.000			4.574			-2.287
151700.000			4.574			-2.287
151801.000			4.574			-2.287
151902.000			4.574			-2.287
152001.000			4.575			-2.287
152100.000			4.574			-2.287
152201.000			4.574			-2.287
152300.000			4.574			-2.287
152400.000			4.573			-2.287
152501.000			4.573			-2.286
152600.000			4.573			-2.286
152700.000			4.574			-2.287
152802.000			4.573			-2.287
152901.000			4.573			-2.287
153001.000			4.574			-2.287
153101.000			4.573			-2.287
153200.000			4.574			-2.287
153300.000			4.574			-2.287
153401.000			4.573			-2.287
153500.000			4.573			-2.287
153600.000			4.572			-2.286
153701.000			4.573			-2.286
153801.000			4.574			-2.287
153901.000			4.574			-2.287
154001.000			4.574			-2.287
154100.000			4.572			-2.286
154200.000			4.573			-2.286
154301.000			4.572			-2.286
154400.000			4.573			-2.287
154501.000			4.573			-2.286
154600.000			4.573			-2.286
154701.000			4.572			-2.286
154802.000			4.573			-2.286
154901.000			4.572			-2.286
155000.000			4.573			-2.287
155101.000			4.572			-2.286
155200.000			4.572			-2.286
155300.000			4.573			-2.286
155401.000			4.573			-2.286
155500.000			4.573			-2.286
155600.000			4.572			-2.286
155702.000			4.572			-2.286
155801.000			4.572			-2.286
155900.000			4.572			-2.286
156001.000			4.573			-2.286
156100.000			4.573			-2.287
156200.000			4.573			-2.287
156301.000			4.572			-2.286
156400.000			4.571			-2.286
156500.000			4.571			-2.285
156602.000			4.571			-2.286
156701.000			4.571			-2.286
156801.000			4.572			-2.286
156901.000			4.573			-2.286
157000.000			4.572			-2.286
157100.000			4.572			-2.286
157201.000			4.571			-2.286
157300.000			4.571			-2.286
157400.000			4.571			-2.286
157501.000			4.571			-2.286
157601.000			4.572			-2.286
157702.000			4.572			-2.286
157801.000			4.572			-2.286
157900.000			4.571			-2.286
158001.000			4.570			-2.285
158100.000			4.571			-2.286
158200.000			4.572			-2.286
158301.000			4.572			-2.286
158400.000			4.571			-2.285
158500.000			4.571			-2.285
158602.000			4.570			-2.285
158701.000			4.570			-2.285
158800.000			4.570			-2.285
158901.000			4.570			-2.285
159000.000			4.571			-2.285
159100.000			4.571			-2.285
159201.000			4.570			-2.285
159300.000			4.571			-2.285
159400.000			4.571			-2.286
159501.000			4.571			-2.286
159601.000			4.571			-2.286
159701.000			4.570			-2.285
159801.000			4.570			-2.285
159900.000			4.571			-2.285
160000.000			4.571			-2.285
160101.000			4.571			-2.286
160200.000			4.569			-2.284
160300.000			4.569			-2.284
160401.000			4.569			-2.285
160501.000			4.570			-2.285
160601.000			4.570			-2.285
160702.000			4.570			-2.285
160800.000			4.571			-2.285
160901.000			4.570			-2.285
161000.000			4.570			-2.285
161100.000			4.570			-2.285
161201.000			4.570			-2.285
161300.000			4.570			-2.285
161400.000			4.570			-2.285
161502.000			4.570			-2.285
161601.000			4.570			-2.285
161701.000			4.569			-2.284
161801.000			4.569			-2.285
161900.000			4.570			-2.285
162000.000			4.570			-2.285
162101.000			4.570			-2.285
162200.000			4.569			-2.285
162300.000			4.569			-2.285
162401.000			4.569			-2.284
162501.000			4.569			-2.285
162601.000			4.570			-2.285
162701.000			4.569			-2.285
162800.000			4.569			-2.284
162900.000			4.569			-2.285
163001.000			4.569			-2.285
163100.000			4.569			-2.284
163200.000			4.569			-2.285
163301.000			4.570			-2.285
163401.000			4.569			-2.285
163501.000			4.570			-2.285
163602.000			4.569			-2.285
163700.000			4.570			-2.285
163800.000			4.569			-2.284
163901.000			4.569			-2.285
164000.000			4.569			-2.284
164101.000			4.568			-2.284
164200.000			4.568			-2.284
164300.000			4.569			-2.284
164402.000			4.569			-2.284
164501.000			4.569			-2.284
164601.000			4.568			-2.284
164701.000			4.569			-2.285
164800.000			4.568			-2.284
164900.000			4.569			-2.284
165001.000			4.569			-2.284
165100.000			4.568			-2.284
165200.000			4.568			-2.284
165301.000			4.568			-2.284
165401.000			4.568			-2.284
165501.000			4.568			-2.284
165602.000			4.569			-2.284
165700.000			4.569			-2.284
165800.000			4.569			-2.284
165901.000			4.569			-2.284
166000.000			4.568			-2.284
166100.000			4.569			-2.284
166201.000			4.569			-2.284
166300.000			4.568			-2.284
166401.000			4.569			-2.284
166502.000			4.568			-2.284
166601.000			4.569			-2.285
166700.000			4.567			-2.284
166801.000			4.567			-2.284
166900.000			4.568			-2.284
167000.000			4.569			-2.284
167101.000			4.568			-2.284
167200.000			4.568			-2.284
167301.000			4.567			-2.284
167401.000			4.568			-2.284
167501.000			4.567			-2.284
167602.000			4.567			-2.284
167700.000			4.567			-2.284
167800.000			4.567			-2.284
167901.000			4.567			-2.284
168000.000			4.567			-2.284
168100.000			4.567			-2.283
168201.000			4.567			-2.284
168300.000			4.567			-2.284
168401.000			4.567			-2.284
168502.000			4.567			-2.284
168601.000			4.567			-2.284
168700.000			4.568			-2.284
168801.000			4.568			-2.284
168900.000			4.567			-2.284
169000.000			4.566			-2.283
169101.000			4.567			-2.283
169200.000			4.567			-2.284
169300.000			4.567			-2.283
169402.000			4.567			-2.283
169501.000			4.567			-2.284
169600.000			4.567			-2.283
169701.000			4.566			-2.283
169800.000			4.567			-2.284
169900.000			4.568			-2.284
170001.000			4.567			-2.284
170100.000			4.567			-2.284
170200.000			4.568			-2.284
170301.000			4.567			-2.283
170401.000			4.567			-2.284
170502.000			4.566			-2.283
170600.000			4.566			-2.283
170700.000			4.566			-2.283
170801.000			4.566			-2.283
170900.000			4.567			-2.283
171000.000			4.567			-2.284
171101.000			4.567			-2.284
171200.000			4.566			-2.283
171301.000			4.566			-2.283
171402.000			4.566			-2.283
171501.000			4.567			-2.283
171600.000			4.566			-2.283
171701.000			4.566			-2.283
171800.000			4.565			-2.283
171900.000			4.566			-2.283
172001.000			4.567			-2.283
172100.000			4.568			-2.284
172200.000			4.567			-2.283
172302.000			4.566			-2.283
172401.000			4.567			-2.284
172501.000			4.566			-2.283
172601.000			4.566			-2.283
172700.000			4.566			-2.283
172800.000			4.567			-2.284
172901.000			4.567			-2.283
173000.000			4.566			-2.283
173100.000			4.565			-2.283
173201.000			4.565			-2.283
173301.000			4.565			-2.283
173401.000			4.565			-2.282
173501.000			4.566			-2.283
173600.000			4.566			-2.283
173701.000			4.566			-2.283
173800.000			4.566			-2.283
173900.000			4.566			-2.283
174001.000			4.566			-2.283
174100.000			4.566			-2.283
174200.000			4.567			-2.283
174302.000			4.566			-2.283
174401.000			4.565			-2.283
174500.000			4.565			-2.283
174601.000			4.565			-2.282
174700.000			4.566			-2.283
174800.000			4.566			-2.283
174901.000			4.565			-2.283
175000.000			4.566			-2.283
175100.000			4.566			-2.283
175202.000			4.566			-2.283
175301.000			4.566			-2.283
175401.000			4.566			-2.283
175501.000			4.565			-2.283
175600.000			4.566			-2.283
175700.000			4.566			-2.283
175801.000			4.566			-2.283
175900.000			4.566			-2.283
176000.000			4.566			-2.283
176101.000			4.565			-2.282
176201.000			4.565			-2.283
176301.000			4.565			-2.283
176402.000			4.564			-2.282
176500.000			4.564			-2.282
176600.000			4.565			-2.282
176701.000			4.566			-2.283
176800.000			4.566			-2.283
176901.000			4.566			-2.283
177000.000			4.565			-2.283
177100.000			4.564			-2.282
177202.000			4.564			-2.282
177301.000			4.566			-2.283
177401.000			4.565			-2.283
177501.000			4.565			-2.283
177600.000			4.565			-2.282
177700.000			4.564			-2.282
177801.000			4.563			-2.282
177900.000			4.563			-2.282
178000.000			4.565			-2.282
178101.000			4.564			-2.282
178201.000			4.565			-2.282
178301.000			4.565			-2.282
178402.000			4.564			-2.282
178500.000			4.564			-2.282
178600.000			4.564			-2.282
178701.000			4.565			-2.283
178800.000			4.565			-2.282
178900.000			4.565			-2.282
179001.000			4.565			-2.282
179100.000			4.563			-2.282
179201.000			4.563			-2.282
179302.000			4.563			-2.282
179401.000			4.564			-2.282
179500.000			4.564			-2.282
179601.000			4.564			-2.282
179700.000			4.564			-2.282
179800.000			4.564			-2.282
179901.000			4.565			-2.282
180000.000			4.564			-2.282
180101.000			4.562			-2.281
180201.000			4.563			-2.281
180301.000			4.565			-2.282
180401.000			4.564			-2.282
180500.000			4.564			-2.282
180600.000			4.564			-2.282
180701.000			4.564			-2.282
180800.000			4.563			-2.282
180900.000			4.563			-2.281
181001.000			4.563			-2.281
181101.000			4.563			-2.281
181201.000			4.563			-2.281
181302.000			4.564			-2.282
181400.000			4.564			-2.282
181500.000			4.564			-2.282
181601.000			4.563			-2.282
181700.000			4.564			-2.282
181800.000			4.564			-2.282
181901.000			4.563			-2.281
182000.000			4.563			-2.281
182101.000			4.562			-2.281
182202.000			4.562			-2.281
182301.000			4.563			-2.281
182400.000			4.563			-2.281
182501.000			4.563			-2.282
182600.000			4.563			-2.282
182700.000			4.562			-2.281
182801.000			4.562			-2.281
182900.000			4.562			-2.281
183000.000			4.563			-2.281
183102.000			4.563			-2.281
183201.000			4.562			-2.281
183301.000			4.561			-2.281
183400.000			4.562			-2.281
183500.000			4.563			-2.281
183601.000			4.563			-2.281
183700.000			4.563			-2.282
183800.000			4.563			-2.281
183901.000			4.563			-2.281
184000.000			4.563			-2.281
184101.000			4.562			-2.281
184202.000			4.562			-2.281
184300.000			4.562			-2.281
184400.000			4.563			-2.281
184501.000			4.563			-2.282
184600.000			4.563			-2.281
184700.000			4.562			-2.281
184801.000			4.561			-2.280
184900.000			4.562			-2.281
185000.000			4.563			-2.281
185102.000			4.563			-2.281
185201.000			4.561			-2.281
185300.000			4.561			-2.281
185401.000			4.562			-2.281
185500.000			4.561			-2.280
185600.000			4.563			-2.282
185701.000			4.562			-2.281
185800.000			4.562			-2.281
185900.000			4.561			-2.281
186002.000			4.562			-2.281
186101.000			4.562			-2.281
186200.000			4.562			-2.281
186301.000			4.561			-2.281
186400.000			4.561			-2.281
186501.000			4.561			-2.280
186600.000			4.561			-2.281
186700.000			4.562			-2.281
186801.000			4.562			-2.281
186901.000			4.561			-2.280
187001.000			4.561			-2.280
187102.000			4.563			-2.281
187200.000			4.562			-2.281
187300.000			4.562			-2.281
187401.000			4.562			-2.281
187500.000			4.562			-2.281
187600.000			4.561			-2.281
187701.000			4.562			-2.281
187800.000			4.560			-2.280
187901.000			4.561			-2.280
188002.000			4.561			-2.280
188101.000			4.560			-2.280
188200.000			4.561			-2.280
188301.000			4.561			-2.280
188400.000			4.561			-2.280
188500.000			4.561			-2.280
188601.000			4.561			-2.280
188700.000			4.561			-2.280
188800.000			4.561			-2.281
188902.000			4.562			-2.281
189001.000			4.561			-2.280
189101.000			4.560			-2.280
189201.000			4.561			-2.280
189300.000			4.561			-2.281
189400.000			4.560			-2.280
189501.000			4.560			-2.280
189600.000			4.561			-2.281
189701.000			4.560			-2.280
189800.000			4.560			-2.280
189901.000			4.561			-2.281
190002.000			4.561			-2.280
190101.000			4.561			-2.280
190200.000			4.560			-2.280
190301.000			4.561			-2.281
190400.000			4.561			-2.281
190500.000			4.561			-2.281
190601.000			4.562			-2.281
190700.000			4.561			-2.280
190800.000			4.561			-2.281
190902.000			4.560			-2.280
191001.000			4.560			-2.280
191100.000			4.561			-2.280
191201.000			4.561			-2.280
191300.000			4.560			-2.280
191400.000			4.560			-2.280
191501.000			4.560			-2.280
191600.000			4.561			-2.281
191700.000			4.560			-2.280
191802.000			4.560			-2.280
191901.000			4.561			-2.280
192001.000			4.561			-2.280
192101.000			4.559			-2.280
192200.000			4.560			-2.280
192300.000			4.560			-2.280
192401.000			4.560			-2.280
192500.000			4.561			-2.280
192600.000			4.560			-2.280
192701.000			4.560			-2.280
192801.000			4.559			-2.280
192902.000			4.560			-2.280
193001.000			4.559			-2.279
193100.000			4.559			-2.279
193201.000			4.559			-2.280
193300.000			4.560			-2.280
193400.000			4.559			-2.280
193501.000			4.559			-2.280
193600.000			4.558			-2.279
193700.000			4.558			-2.279
193802.000			4.558			-2.279
193901.000			4.560			-2.280
194001.000			4.560			-2.280
194101.000			4.559			-2.280
194200.000			4.559			-2.280
194300.000			4.559			-2.280
194401.000			4.559			-2.279
194500.000			4.560			-2.280
194600.000			4.561			-2.280
194701.000			4.559			-2.280
194801.000			4.559			-2.279
194901.000			4.558			-2.279
195002.000			4.559			-2.279
195100.000			4.558			-2.279
195200.000			4.559			-2.280
195301.000			4.559			-2.279
195400.000			4.558			-2.279
195500.000			4.558			-2.279
195601.000			4.558			-2.279
195700.000			4.558			-2.279
195800.000			4.559			-2.279
195902.000			4.558			-2.279
196001.000			4.558			-2.279
196101.000			4.558			-2.279
196200.000			4.559			-2.279
196300.000			4.558			-2.279
196401.000			4.558			-2.279
196500.000			4.558			-2.279
196600.000			4.559			-2.279
196701.000			4.558			-2.279
196800.000			4.558			-2.279
196901.000			4.558			-2.279
197002.000			4.558			-2.279
197101.000			4.559			-2.280
197200.000			4.558			-2.279
197301.000			4.559			-2.279
197400.000			4.558			-2.279
197500.000			4.558			-2.279
197601.000			4.558			-2.279
197700.000			4.557			-2.279
197800.000			4.558			-2.279
197902.000			4.559			-2.279
198001.000			4.558			-2.279
198101.000			4.558			-2.279
198201.000			4.558			-2.279
198300.000			4.558			-2.279
198400.000			4.559			-2.279
198501.000			4.558			-2.279
198600.000			4.557			-2.278
198700.000			4.560			-2.280
198801.000			4.558			-2.279
198901.000			4.558			-2.279
199001.000			4.557			-2.279
199102.000			4.557			-2.279
199200.000			4.558			-2.279
199301.000			4.558			-2.279
199400.000			4.558			-2.279
199500.000			4.558			-2.279
199601.000			4.558			-2.279
199700.000			4.558			-2.279
199800.000			4.558			-2.279
199902.000			4.558			-2.279
200001.000			4.558			-2.279
200101.000			4.558			-2.279
200201.000			4.558			-2.279
200300.000			4.557			-2.279
200400.000			4.558			-2.279
200501.000			4.558			-2.279
200600.000			4.558			-2.279
200700.000			4.557			-2.279
200801.000			4.557			-2.279
200901.000			4.557			-2.279
201001.000			4.558			-2.279
201101.000			4.557			-2.279
201200.000			4.557			-2.278
201300.000			4.557			-2.279
201401.000			4.557			-2.279
201500.000			4.557			-2.278
201600.000			4.556			-2.278
201701.000			4.557			-2.278
201801.000			4.558			-2.279
201901.000			4.557			-2.278
202001.000			4.556			-2.278
202100.000			4.556			-2.278
202200.000			4.557			-2.279
202301.000			4.556			-2.278
202400.000			4.556			-2.278
202501.000			4.555			-2.278
202600.000			4.556			-2.278
202701.000			4.556			-2.278
202802.000			4.557			-2.279
202900.000			4.557			-2.279
203000.000			4.556			-2.278
203101.000			4.557			-2.278
203200.000			4.558			-2.279
203300.000			4.557			-2.279
203401.000			4.557			-2.278
203500.000			4.557			-2.278
203601.000			4.556			-2.278
203702.000			4.556			-2.278
203801.000			4.556			-2.278
203900.000			4.556			-2.278
204001.000			4.556			-2.278
204100.000			4.556			-2.278
204200.000			4.557			-2.279
204301.000			4.557			-2.278
204400.000			4.556			-2.278
204501.000			4.557			-2.279
204602.000			4.556			-2.278
204701.000			4.556			-2.278
204800.000			4.556			-2.278
204901.000			4.556			-2.278
205000.000			4.556			-2.278
205100.000			4.555			-2.278
205201.000			4.555			-2.277
205300.000			4.556			-2.278
205401.000			4.556			-2.278
205502.000			4.556			-2.278
205601.000			4.555			-2.278
205701.000			4.555			-2.277
205800.000			4.554			-2.277
205900.000			4.555			-2.277
206001.000			4.558			-2.279
206100.000			4.557			-2.278
206200.000			4.556			-2.278
206301.000			4.556			-2.278
206401.000			4.555			-2.277
206501.000			4.555			-2.277
206601.000			4.556			-2.278
206700.000			4.555			-2.278
206800.000			4.555			-2.277
206901.000			4.555			-2.278
207000.000			4.555			-2.277
207100.000			4.554			-2.277
207201.000			4.555			-2.278
207301.000			4.555			-2.278
207401.000			4.555			-2.277
207501.000			4.555			-2.278
207600.000			4.554			-2.277
207700.000			4.554			-2.277
207801.000			4.555			-2.277
207900.000			4.555			-2.277
208000.000			4.555			-2.277
208101.000			4.554			-2.277
208201.000			4.555			-2.277
208301.000			4.555			-2.278
208402.000			4.556			-2.278
208500.000			4.555			-2.278
208600.000			4.555			-2.278
208701.000			4.556			-2.278
208800.000			4.555			-2.278
208901.000			4.554			-2.277
209000.000			4.553			-2.277
209100.000			4.554			-2.277
209202.000			4.555			-2.278
209301.000			4.555			-2.277
209400.000			4.555			-2.277
209501.000			4.555			-2.277
209600.000			4.555			-2.278
209700.000			4.555			-2.277
209801.000			4.554			-2.277
209900.000			4.554			-2.277
210000.000			4.554			-2.277
210102.000			4.554			-2.277
210201.000			4.555			-2.277
210301.000			4.553			-2.277
210401.000			4.553			-2.276
210500.000			4.553			-2.277
210600.000			4.554			-2.277
210701.000			4.554			-2.277
210800.000			4.555			-2.277
210900.000			4.554			-2.277
211002.000			4.554			-2.277
211101.000			4.554			-2.277
211200.000			4.553			-2.277
211301.000			4.553			-2.277
211400.000			4.554			-2.277
211500.000			4.553			-2.277
211601.000			4.553			-2.277
211700.000			4.554			-2.277
211800.000			4.553			-2.277
211902.000			4.554			-2.277
212001.000			4.554			-2.277
212101.000			4.555			-2.277
212200.000			4.554			-2.277
212300.000			4.553			-2.277
212401.000			4.553			-2.277
212500.000			4.555			-2.277
212600.000			4.554			-2.277
212701.000			4.554			-2.277
212801.000			4.554			-2.277
212901.000			4.554			-2.277
213002.000			4.554			-2.277
213100.000			4.554			-2.277
213200.000			4.554			-2.277
213301.000			4.554			-2.277
213400.000			4.553			-2.277
213500.000			4.553			-2.277
213601.000			4.554			-2.277
213701.000			4.554			-2.277
213801.000			4.553			-2.277
213902.000			4.554			-2.277
214000.000			4.554			-2.277
214100.000			4.554			-2.277
214201.000			4.553			-2.276
214300.000			4.553			-2.276
214400.000			4.553			-2.276
214501.000			4.554			-2.277
214601.000			4.554			-2.277
214701.000			4.554			-2.277
214802.000			4.553			-2.277
214900.000			4.553			-2.277
215000.000			4.554			-2.277
215101.000			4.554			-2.277
215200.000			4.552			-2.276
215301.000			4.553			-2.276
215400.000			4.553			-2.277
215500.000			4.552			-2.276
215602.000			4.552			-2.276
215701.000			4.551			-2.276
215800.000			4.553			-2.276
215901.000			4.554			-2.277
216000.000			4.553			-2.277
216100.000			4.554			-2.277
216201.000			4.554			-2.277
216300.000			4.553			-2.277
216400.000			4.554			-2.277
216502.000			4.554			-2.277
216601.000			4.553			-2.276
216700.000			4.553			-2.277
216801.000			4.553			-2.277
216900.000			4.553			-2.276
217000.000			4.552			-2.276
217101.000			4.552			-2.276
217200.000			4.553			-2.276
217300.000			4.553			-2.276
217402.000			4.552			-2.276
217501.000			4.554			-2.277
217601.000			4.553			-2.276
217701.000			4.553			-2.277
217800.000			4.553			-2.277
217900.000			4.553			-2.277
218001.000			4.553			-2.276
218100.000			4.553			-2.276
218200.000			4.552			-2.276
218302.000			4.552			-2.276
218401.000			4.552			-2.276
218502.000			4.553			-2.276
218600.000			4.553			-2.276
218700.000			4.553			-2.277
218801.000			4.553			-2.276
218900.000			4.552			-2.276
219000.000			4.553			-2.276
219101.000			4.552			-2.276
219200.000			4.553			-2.276
219301.000			4.553			-2.277
219402.000			4.552			-2.276
219500.000			4.552			-2.276
219600.000			4.552			-2.276
219701.000			4.553			-2.277
219800.000			4.553			-2.277
219900.000			4.552			-2.276
220001.000			4.553			-2.276
220100.000			4.552			-2.276
220201.000			4.551			-2.276
220302.000			4.552			-2.276
220401.000			4.551			-2.275
220500.000			4.552			-2.276
220601.000			4.552			-2.276
220700.000			4.552			-2.276
220800.000			4.552			-2.276
220901.000			4.552			-2.276
221000.000			4.552			-2.276
221101.000			4.551			-2.276
221202.000			4.551			-2.276
221301.000			4.551			-2.276
221400.000			4.551			-2.276
221501.000			4.551			-2.276
221600.000			4.551			-2.276
221701.000			4.551			-2.276
221800.000			4.552			-2.276
221900.000			4.551			-2.276
222002.000			4.551			-2.275
222101.000			4.551			-2.275
222201.000			4.551			-2.275
222301.000			4.550			-2.275
222400.000			4.551			-2.275
222500.000			4.551			-2.276
222601.000			4.552			-2.276
222700.000			4.553			-2.276
222800.000			4.552			-2.276
222902.000			4.550			-2.275
223001.000			4.551			-2.276
223101.000			4.552			-2.276
223201.000			4.551			-2.276
223300.000			4.550			-2.275
223400.000			4.551			-2.275
223501.000			4.551			-2.275
223600.000			4.551			-2.276
223700.000			4.551			-2.276
223802.000			4.551			-2.276
223901.000			4.551			-2.275
224001.000			4.549			-2.275
224101.000			4.550			-2.275
224200.000			4.550			-2.275
224300.000			4.550			-2.275
224401.000			4.551			-2.275
224500.000			4.551			-2.276
224600.000			4.550			-2.275
224701.000			4.550			-2.275
224801.000			4.551			-2.275
224902.000			4.551			-2.275
225000.000			4.551			-2.275
225100.000			4.550			-2.275
225201.000			4.548			-2.274
225300.000			4.549			-2.275
225400.000			4.551			-2.275
225501.000			4.550			-2.275
225600.000			4.550			-2.275
225701.000			4.551			-2.275
225802.000			4.551			-2.275
225900.000			4.551			-2.275
226000.000			4.550			-2.275
226101.000			4.549			-2.274
226200.000			4.549			-2.275
226300.000			4.551			-2.276
226401.000			4.551			-2.275
226500.000			4.550			-2.275
226601.000			4.550			-2.275
226702.000			4.549			-2.275
226801.000			4.550			-2.275
226900.000			4.551			-2.275
227001.000			4.549			-2.275
227100.000			4.549			-2.274
227200.000			4.548			-2.274
227301.000			4.549			-2.274
227400.000			4.550			-2.275
227500.000			4.550			-2.275
227602.000			4.551			-2.275
227701.000			4.550			-2.275
227800.000			4.549			-2.275
227901.000			4.549			-2.275
228000.000			4.549			-2.275
228101.000			4.550			-2.275
228200.000			4.550			-2.275
228300.000			4.550			-2.275
228401.000			4.548			-2.274
228501.000			4.550			-2.275
228601.000			4.549			-2.274
228702.000			4.549			-2.274
228800.000			4.549			-2.274
228900.000			4.549			-2.275
229001.000			4.549			-2.274
229100.000			4.550			-2.275
229200.000			4.550			-2.275
229301.000			4.550			-2.275
229400.000			4.549			-2.275
229501.000			4.550			-2.275
229602.000			4.550			-2.275
229700.000			4.549			-2.275
229800.000			4.549			-2.275
229901.000			4.550			-2.275
230000.000			4.549			-2.275
230100.000			4.548			-2.274
230201.000			4.549			-2.274
230300.000			4.549			-2.275
230401.000			4.549			-2.275
230502.000			4.550			-2.275
230601.000			4.549			-2.275
230700.000			4.548			-2.274
230801.000			4.549			-2.274
230900.000			4.549			-2.274
231000.000			4.549			-2.275
231101.000			4.549			-2.275
231200.000			4.549			-2.274
231302.000			4.549			-2.274
231401.000			4.549			-2.274
231501.000			4.549			-2.274
231601.000			4.549			-2.275
231700.000			4.550			-2.275
231800.000			4.550			-2.275
231901.000			4.549			-2.274
232000.000			4.548			-2.274
232100.000			4.549			-2.274
232201.000			4.548			-2.274
232301.000			4.548			-2.274
232401.000			4.549			-2.274
232501.000			4.549			-2.274
232600.000			4.549			-2.275
232700.000			4.548			-2.274
232801.000			4.550			-2.275
232900.000			4.550			-2.275
233000.000			4.548			-2.274
233101.000			4.548			-2.274
233201.000			4.547			-2.273
233301.000			4.548			-2.274
233401.000			4.548			-2.274
233500.000			4.549			-2.274
233600.000			4.548			-2.274
233701.000			4.548			-2.274
233800.000			4.549			-2.274
233900.000			4.548			-2.274
234001.000			4.548			-2.274
234101.000			4.548			-2.274
234201.000			4.548			-2.274
234302.000			4.548			-2.274
234400.000			4.548			-2.274
234501.000			4.547			-2.274
234600.000			4.547			-2.273
234700.000			4.547			-2.273
234801.000			4.547			-2.274
234900.000			4.548			-2.274
235000.000			4.548			-2.274
235102.000			4.548			-2.274
235201.000			4.548			-2.274
235300.000			4.548			-2.274
235401.000			4.547			-2.274
235500.000			4.547			-2.273
235600.000			4.548			-2.274
235701.000			4.548			-2.274
235800.000			4.548			-2.274
235900.000			4.548			-2.274
236002.000			4.548			-2.274
236101.000			4.548			-2.274
236201.000			4.548			-2.274
236301.000			4.548			-2.274
236400.000			4.547			-2.274
236500.000			4.548			-2.274
236601.000			4.549			-2.274
236700.000			4.547			-2.274
236800.000			4.547			-2.273
236902.000			4.548			-2.274
237001.000			4.548			-2.274
237101.000			4.547			-2.273
237201.000			4.548			-2.274
237300.000			4.548			-2.274
237400.000			4.548			-2.274
237501.000			4.549			-2.274
237600.000			4.548			-2.274
237701.000			4.547			-2.273
237800.000			4.547			-2.274
237901.000			4.548			-2.274
238002.000			4.548			-2.274
238101.000			4.547			-2.274
238200.000			4.546			-2.273
238301.000			4.548			-2.274
238400.000			4.548			-2.274
238500.000			4.547			-2.274
238601.000			4.547			-2.273
238700.000			4.546			-2.273
238800.000			4.547			-2.273
238902.000			4.547			-2.274
239001.000			4.547			-2.274
239100.000			4.547			-2.273
239201.000			4.548			-2.274
239300.000			4.546			-2.273
239400.000			4.546			-2.273
239501.000			4.546			-2.273
239600.000			4.547			-2.274
239700.000			4.547			-2.273
239802.000			4.546			-2.273
239901.000			4.547			-2.273
240001.000			4.547			-2.273
240101.000			4.547			-2.274
240200.000			4.546			-2.273
240300.000			4.547			-2.273
240401.000			4.547			-2.274
240500.000			4.547			-2.273
240600.000			4.546			-2.273
240701.000			4.545			-2.273
240801.000			4.546			-2.273
240902.000			4.546			-2.273
241001.000			4.547			-2.274
241100.000			4.546			-2.273
241201.000			4.547			-2.273
241300.000			4.546			-2.273
241400.000			4.546			-2.273
241501.000			4.547			-2.273
241600.000			4.545			-2.273
241701.000			4.546			-2.273
241802.000			4.547			-2.273
241901.000			4.546			-2.273
242000.000			4.546			-2.273
242101.000			4.547			-2.273
242200.000			4.546			-2.273
242300.000			4.547			-2.274
242401.000			4.547			-2.274
242500.000			4.548			-2.274
242600.000			4.548			-2.274
242702.000			4.547			-2.273
242801.000			4.546			-2.273
242900.000			4.547			-2.273
243001.000			4.547			-2.273
243100.000			4.546			-2.273
243200.000			4.547			-2.273
243301.000			4.547			-2.273
243400.000			4.546			-2.273
243500.000			4.546			-2.273
243602.000			4.546			-2.273
243701.000			4.545			-2.273
243800.000			4.545			-2.273
243901.000			4.545			-2.273
244000.000			4.545			-2.273
244101.000			4.546			-2.273
244200.000			4.545			-2.273
244300.000			4.546			-2.273
244401.000			4.546			-2.273
244501.000			4.546			-2.273
244601.000			4.546			-2.273
244702.000			4.546			-2.273
244800.000			4.546			-2.273
244900.000			4.546			-2.273
245001.000			4.545			-2.273
245100.000			4.546			-2.273
245200.000			4.545			-2.273
245301.000			4.546			-2.273
245401.000			4.546			-2.273
245501.000			4.546			-2.273
245602.000			4.546			-2.273
245700.000			4.545			-2.273
245800.000			4.545			-2.273
245901.000			4.545			-2.273
246000.000			4.545			-2.272
246100.000			4.545			-2.272
246201.000			4.546			-2.273
246300.000			4.545			-2.272
246401.000			4.545			-2.272
246502.000			4.545			-2.272
246600.000			4.546			-2.273
246700.000			4.546			-2.273
246801.000			4.546			-2.273
246900.000			4.545			-2.273
247000.000			4.546			-2.273
247101.000			4.546			-2.273
247200.000			4.546			-2.273
247302.000			4.545			-2.273
247401.000			4.545			-2.272
247501.000			4.544			-2.272
247601.000			4.544			-2.272
247700.000			4.545			-2.273
247800.000			4.545			-2.272
247901.000			4.545			-2.273
248000.000			4.545			-2.272
248100.000			4.545			-2.273
248201.000			4.545			-2.273
248301.000			4.545			-2.272
248401.000			4.545			-2.272
248501.000			4.545			-2.273
248600.000			4.545			-2.272
248700.000			4.545			-2.272
248801.000			4.544			-2.272
248900.000			4.543			-2.272
249000.000			4.544			-2.272
249101.000			4.545			-2.272
249201.000			4.545			-2.272
249301.000			4.545			-2.272
249402.000			4.544			-2.272
249500.000			4.545			-2.273
249600.000			4.545			-2.273
249701.000			4.544			-2.272
249800.000			4.544			-2.272
249900.000			4.545			-2.272
250001.000			4.544			-2.272
250100.000			4.544			-2.272
250201.000			4.545			-2.273
250302.000			4.544			-2.272
250400.000			4.544			-2.272
250501.000			4.544			-2.272
250600.000			4.545			-2.272
250700.000			4.545			-2.272
250801.000			4.545			-2.272
250900.000			4.544			-2.272
251000.000			4.545			-2.272
251102.000			4.545			-2.273
251201.000			4.545			-2.272
251301.000			4.543			-2.272
251401.000			4.544			-2.272
251500.000			4.544			-2.272
251600.000			4.545			-2.272
251701.000			4.544			-2.272
251800.000			4.544			-2.272
251900.000			4.543			-2.272
252001.000			4.543			-2.272
252101.000			4.544			-2.272
252201.000			4.544			-2.272
252301.000			4.544			-2.272
252400.000			4.544			-2.272
252500.000			4.545			-2.272
252601.000			4.545			-2.272
252700.000			4.544			-2.272
252800.000			4.544			-2.272
252901.000			4.544			-2.272
253001.000			4.544			-2.272
253101.000			4.543			-2.272
253201.000			4.543			-2.271
253300.000			4.543			-2.271
253400.000			4.543			-2.271
253501.000			4.544			-2.272
253600.000			4.544			-2.272
253701.000			4.544			-2.272
253800.000			4.543			-2.272
253901.000			4.544			-2.272
254002.000			4.545			-2.272
254101.000			4.544			-2.272
254200.000			4.544			-2.272
254301.000			4.543			-2.271
254400.000			4.543			-2.271
254500.000			4.543			-2.271
254601.000			4.543			-2.271
254700.000			4.543			-2.271
254801.000			4.543			-2.271
254902.000			4.543			-2.271
255001.000			4.543			-2.272
255100.000			4.543			-2.272
255201.000			4.544			-2.272
255300.000			4.544			-2.272
255400.000			4.542			-2.271
255501.000			4.543			-2.271
255600.000			4.543			-2.272
255700.000			4.543			-2.271
255802.000			4.543			-2.271
255901.000			4.544			-2.272
256000.000			4.543			-2.272
256101.000			4.543			-2.271
256200.000			4.542			-2.271
256300.000			4.543			-2.272
256401.000			4.543			-2.272
256500.000			4.543			-2.272
256600.000			4.543			-2.272
256702.000			4.543			-2.272
256801.000			4.542			-2.271
256901.000			4.543			-2.271
257000.000			4.542			-2.271
257100.000			4.542			-2.271
257201.000			4.543			-2.272
257300.000			4.543			-2.272
257400.000			4.543			-2.271
257501.000			4.544			-2.272
257601.000			4.544			-2.272
257701.000			4.543			-2.272
257802.000			4.543			-2.271
257900.000			4.543			-2.272
258000.000			4.543			-2.272
258101.000			4.542			-2.271
258200.000			4.542			-2.271
258300.000			4.542			-2.271
258401.000			4.542			-2.271
258500.000			4.543			-2.271
258601.000			4.542			-2.271
258702.000			4.541			-2.271
258800.000			4.541			-2.271
258900.000			4.543			-2.271
259001.000			4.543			-2.272
259100.000			4.543			-2.271
259200.000			4.542			-2.271
259301.000			4.543			-2.271
259400.000			4.544			-2.272
259501.000			4.542			-2.271
259602.000			4.541			-2.271
259701.000			4.541			-2.271
259800.000			4.541			-2.270
259901.000			4.540			-2.270
260000.000			4.541			-2.271
260101.000			4.542			-2.271
260200.000			4.542			-2.271
260300.000			4.542			-2.271
260402.000			4.543			-2.272
260501.000			4.543			-2.272
260601.000			4.543			-2.272
260701.000			4.542			-2.271
260800.000			4.541			-2.271
260900.000			4.542			-2.271
261001.000			4.542			-2.271
261100.000			4.540			-2.270
261200.000			4.540			-2.270
261301.000			4.541			-2.270
261401.000			4.541			-2.271
261501.000			4.542			-2.271
261601.000			4.542			-2.271
261700.000			4.542			-2.271
261800.000			4.541			-2.270
261901.000			4.541			-2.271
262000.000			4.542			-2.271
262100.000			4.542			-2.271
262201.000			4.541			-2.271
262301.000			4.541			-2.271
262401.000			4.542			-2.271
262501.000			4.543			-2.271
262600.000			4.542			-2.271
262700.000			4.542			-2.271
262801.000			4.542			-2.271
262900.000			4.541			-2.270
263000.000			4.540			-2.270
263101.000			4.542			-2.271
263201.000			4.542			-2.271
263302.000			4.542			-2.271
263401.000			4.541			-2.271
263500.000			4.541			-2.271
263601.000			4.542			-2.271
263700.000			4.541			-2.270
263800.000			4.541			-2.270
263901.000			4.541			-2.270
264000.000			4.541			-2.270
264100.000			4.542			-2.271
264202.000			4.541			-2.271
264301.000			4.540			-2.270
264400.000			4.541			-2.271
264501.000			4.541			-2.271
264600.000			4.541			-2.271
264700.000			4.540			-2.270
264801.000			4.541			-2.271
264900.000			4.541			-2.271
265000.000			4.541			-2.271
265102.000			4.541			-2.270
265201.000			4.539			-2.270
265300.000			4.539			-2.270
265401.000			4.539			-2.270
265500.000			4.540			-2.270
265600.000			4.540			-2.270
265701.000			4.541			-2.270
265800.000			4.540			-2.270
265900.000			4.540			-2.270
266002.000			4.540			-2.270
266101.000			4.540			-2.270
266201.000			4.541			-2.270
266301.000			4.541			-2.271
266400.000			4.542			-2.271
266501.000			4.541			-2.271
266600.000			4.541			-2.270
266700.000			4.540			-2.270
266801.000			4.541			-2.270
266900.000			4.540			-2.270
267001.000			4.540			-2.270
267102.000			4.539			-2.270
267200.000			4.540			-2.270
267300.000			4.540			-2.270
267401.000			4.540			-2.270
267500.000			4.540			-2.270
267600.000			4.541			-2.270
267701.000			4.540			-2.270
267800.000			4.540			-2.270
267901.000			4.540			-2.270
268002.000			4.540			-2.270
268101.000			4.540			-2.270
268200.000			4.540			-2.270
268301.000			4.539			-2.270
268400.000			4.540			-2.270
268500.000			4.540			-2.270
268601.000			4.540			-2.270
268700.000			4.539			-2.270
268800.000			4.539			-2.269
268902.000			4.541			-2.270
269001.000			4.541			-2.270
269100.000			4.541			-2.270
269201.000			4.540			-2.270
269300.000			4.540			-2.270
269400.000			4.539			-2.270
269501.000			4.539			-2.269
269600.000			4.539			-2.270
269701.000			4.539			-2.270
269801.000			4.539			-2.269
269901.000			4.539			-2.269
270002.000			4.539			-2.270
270100.000			4.540			-2.270
270200.000			4.540			-2.270
270301.000			4.540			-2.270
270400.000			4.539			-2.270
270500.000			4.539			-2.269
270601.000			4.539			-2.270
270700.000			4.538			-2.269
270801.000			4.539			-2.270
270902.000			4.540			-2.270
271000.000			4.539			-2.269
271100.000			4.539			-2.269
271201.000			4.538			-2.269
271300.000			4.539			-2.269
271400.000			4.539			-2.270
271501.000			4.539			-2.270
271600.000			4.539			-2.269
271701.000			4.539			-2.270
271802.000			4.539			-2.270
271901.000			4.539			-2.270
272000.000			4.540			-2.270
272101.000			4.540			-2.270
272200.000			4.540			-2.270
272300.000			4.539			-2.270
272401.000			4.540			-2.270
272500.000			4.540			-2.270
272600.000			4.538			-2.269
272702.000			4.539			-2.270
272801.000			4.540			-2.270
272901.000			4.539			-2.270
273000.000			4.539			-2.270
273100.000			4.539			-2.269
273201.000			4.539			-2.270
273300.000			4.539			-2.270
273400.000			4.539			-2.270
273501.000			4.540			-2.270
273601.000			4.539			-2.270
273701.000			4.540			-2.270
273802.000			4.539			-2.270
273900.000			4.540			-2.270
274000.000			4.540			-2.270
274101.000			4.540			-2.270
274200.000			4.540			-2.270
274300.000			4.540			-2.270
274401.000			4.540			-2.270
274500.000			4.540			-2.270
274601.000			4.539			-2.270
274702.000			4.539			-2.270
274801.000			4.539			-2.270
274900.000			4.540			-2.270
275001.000			4.539			-2.270
275100.000			4.540			-2.270
275200.000			4.540			-2.270
275301.000			4.539			-2.270
275400.000			4.539			-2.270
275501.000			4.540			-2.270
275602.000			4.541			-2.270
275701.000			4.540			-2.270
275800.000			4.540			-2.270
275901.000			4.540			-2.270
276000.000			4.539			-2.270
276101.000			4.539			-2.270
276200.000			4.539			-2.269
276300.000			4.540			-2.270
276401.000			4.541			-2.270
276501.000			4.540			-2.270
276601.000			4.540			-2.270
276701.000			4.540			-2.270
276800.000			4.541			-2.270
276900.000			4.541			-2.270
277001.000			4.540			-2.270
277100.000			4.539			-2.270
277200.000			4.538			-2.269
277301.000			4.538			-2.269
277401.000			4.540			-2.270
277501.000			4.539			-2.270
277602.000			4.539			-2.269
277700.000			4.539			-2.269
277800.000			4.539			-2.270
277901.000			4.539			-2.270
278000.000			4.540			-2.270
278100.000			4.539			-2.270
278201.000			4.539			-2.270
278300.000			4.539			-2.269
278401.000			4.538			-2.269
278502.000			4.539			-2.269
278601.000			4.539			-2.270
278700.000			4.540			-2.270
278801.000			4.539			-2.270
278900.000			4.539			-2.269
279000.000			4.539			-2.270
279101.000			4.539			-2.270
279200.000			4.539			-2.269
279301.000			4.538			-2.269
279401.000			4.539			-2.269
279501.000			4.538			-2.269
279601.000			4.538			-2.269
279700.000			4.538			-2.269
279800.000			4.539			-2.269
279901.000			4.538			-2.269
280000.000			4.540			-2.270
280100.000			4.539			-2.270
280201.000			4.538			-2.269
280301.000			4.538			-2.269
280401.000			4.537			-2.268
280502.000			4.539			-2.269
280600.000			4.539			-2.270
280700.000			4.539			-2.270
280801.000			4.539			-2.269
280900.000			4.538			-2.269
281000.000			4.539			-2.269
281101.000			4.539			-2.269
281200.000			4.539			-2.269
281301.000			4.539			-2.270
281402.000			4.538			-2.269
281501.000			4.538			-2.269
281600.000			4.538			-2.269
281701.000			4.538			-2.269
281800.000			4.538			-2.269
281900.000			4.539			-2.269
282001.000			4.538			-2.269
282100.000			4.537			-2.268
282200.000			4.537			-2.269
282302.000			4.538			-2.269
282401.000			4.539			-2.269
282501.000			4.539			-2.269
282600.000			4.538			-2.269
282700.000			4.538			-2.269
282801.000			4.538			-2.269
282900.000			4.538			-2.269
283000.000			4.538			-2.269
283101.000			4.538			-2.269
283201.000			4.538			-2.269
283301.000			4.538			-2.269
283401.000			4.538			-2.269
283500.000			4.537			-2.269
283600.000			4.537			-2.269
283701.000			4.539			-2.269
283800.000			4.538			-2.269
283900.000			4.537			-2.269
284001.000			4.537			-2.269
284100.000			4.538			-2.269
284201.000			4.538			-2.269
284302.000			4.538			-2.269
284400.000			4.538			-2.269
284500.000			4.538			-2.269
284601.000			4.538			-2.269
284700.000			4.537			-2.269
284800.000			4.537			-2.268
284901.000			4.538			-2.269
285000.000			4.537			-2.269
285101.000			4.538			-2.269
285202.000			4.538			-2.269
285301.000			4.537			-2.269
285400.000			4.537			-2.269
285501.000			4.537			-2.269
285600.000			4.536			-2.268
285701.000			4.536			-2.268
285800.000			4.537			-2.268
285900.000			4.537			-2.269
286001.000			4.537			-2.269
286101.000			4.537			-2.268
286201.000			4.537			-2.268
286301.000			4.537			-2.268
286400.000			4.537			-2.268
286500.000			4.538			-2.269
286601.000			4.537			-2.268
286700.000			4.537			-2.268
286800.000			4.537			-2.268
286901.000			4.536			-2.268
287000.000			4.537			-2.268
287101.000			4.536			-2.268
287202.000			4.537			-2.268
287300.000			4.536			-2.268
287400.000			4.536			-2.268
287501.000			4.536			-2.268
287600.000			4.537			-2.268
287700.000			4.537			-2.268
287801.000			4.537			-2.268
287900.000			4.536			-2.268
288001.000			4.536			-2.268
288102.000			4.535			-2.268
288201.000			4.537			-2.269
288300.000			4.537			-2.268
288401.000			4.537			-2.268
288500.000			4.537			-2.268
288600.000			4.536			-2.268
288701.000			4.535			-2.268
288800.000			4.536			-2.268
288901.000			4.536			-2.268
289001.000			4.536			-2.268
289101.000			4.535			-2.268
289202.000			4.535			-2.268
289300.000			4.536			-2.268
289400.000			4.536			-2.268
289501.000			4.536			-2.268
289600.000			4.536			-2.268
289700.000			4.537			-2.268
289801.000			4.537			-2.269
289900.000			4.538			-2.269
290001.000			4.537			-2.268
290102.000			4.536			-2.268
290201.000			4.536			-2.268
290300.000			4.536			-2.268
290401.000			4.536			-2.268
290500.000			4.536			-2.268
290600.000			4.536			-2.268
290701.000			4.536			-2.268
290800.000			4.536			-2.268
290900.000			4.537			-2.268
291002.000			4.537			-2.268
291101.000			4.536			-2.268
291200.000			4.535			-2.268
291301.000			4.535			-2.267
291400.000			4.536			-2.268
291500.000			4.536			-2.268
291601.000			4.536			-2.268
291700.000			4.536			-2.268
291800.000			4.536			-2.268
291902.000			4.536			-2.268
292001.000			4.536			-2.268
292102.000			4.537			-2.268
292200.000			4.536			-2.268
292300.000			4.536			-2.268
292401.000			4.536			-2.268
292500.000			4.535			-2.268
292600.000			4.536			-2.268
292701.000			4.536			-2.268
292800.000			4.535			-2.268
292901.000			4.536			-2.268
293002.000			4.537			-2.268
293101.000			4.536			-2.268
293200.000			4.535			-2.268
293301.000			4.536			-2.268
293400.000			4.535			-2.268
293500.000			4.536			-2.268
293601.000			4.535			-2.268
293700.000			4.535			-2.267
293801.000			4.535			-2.267
293902.000			4.534			-2.267
294001.000			4.535			-2.267
294100.000			4.536			-2.268
294201.000			4.535			-2.268
294300.000			4.536			-2.268
294400.000			4.536			-2.268
294501.000			4.536			-2.268
294600.000			4.536			-2.268
294700.000			4.535			-2.267
294802.000			4.534			-2.267
294901.000			4.536			-2.268
295001.000			4.536			-2.268
295101.000			4.535			-2.268
295200.000			4.534			-2.267
295301.000			4.535			-2.267
295400.000			4.534			-2.267
295500.000			4.535			-2.267
295601.000			4.536			-2.268
295700.000			4.535			-2.267
295801.000			4.534			-2.267
295902.000			4.536			-2.268
296001.000			4.536			-2.268
296100.000			4.535			-2.267
296201.000			4.535			-2.267
296300.000			4.535			-2.268
296400.000			4.535			-2.268
296501.000			4.535			-2.268
296600.000			4.534			-2.267
296701.000			4.534			-2.267
296802.000			4.534			-2.267
296901.000			4.535			-2.267
297000.000			4.534			-2.267
297101.000			4.535			-2.267
297200.000			4.534			-2.267
297300.000			4.535			-2.268
297401.000			4.535			-2.267
297500.000			4.535			-2.268
297600.000			4.535			-2.268
297702.000			4.536			-2.268
297801.000			4.534			-2.267
297901.000			4.535			-2.268
298001.000			4.536			-2.268
298100.000			4.534			-2.267
298200.000			4.534			-2.267
298301.000			4.534			-2.267
298400.000			4.534			-2.267
298501.000			4.535			-2.267
298600.000			4.534			-2.267
298701.000			4.534			-2.267
298802.000			4.533			-2.267
298901.000			4.534			-2.267
299000.000			4.535			-2.267
299101.000			4.534			-2.267
299200.000			4.534			-2.267
299300.000			4.534			-2.267
299401.000			4.534			-2.267
299500.000			4.534			-2.267
299600.000			4.534			-2.267
299702.000			4.534			-2.267
299801.000			4.536			-2.268
299901.000			4.536			-2.268
