# Acquired on 09/01/2024 13:02:53 
# SPIDER: Creep_8mm_0771453C
# CREEP MEASUREMENT

# time [ms]		force [N]		stiffness [N/mm]
1.000			-43.422			-5.428
100.000			-45.413			-5.677
201.000			-46.052			-5.756
300.000			-45.908			-5.739
400.000			-45.706			-5.713
502.000			-45.557			-5.695
601.000			-45.435			-5.679
701.000			-45.243			-5.655
800.000			-45.162			-5.645
900.000			-45.090			-5.636
1001.000			-45.024			-5.628
1100.000			-44.963			-5.620
1200.000			-44.908			-5.613
1302.000			-44.855			-5.607
1401.000			-44.761			-5.595
1500.000			-44.718			-5.590
1601.000			-44.678			-5.585
1700.000			-44.640			-5.580
1800.000			-44.602			-5.575
1901.000			-44.567			-5.571
2001.000			-44.534			-5.567
2101.000			-44.471			-5.559
2201.000			-44.442			-5.555
2300.000			-44.413			-5.552
2400.000			-44.386			-5.548
2501.000			-44.358			-5.545
2600.000			-44.334			-5.542
2700.000			-44.309			-5.539
2802.000			-44.261			-5.533
2901.000			-44.238			-5.530
3000.000			-44.217			-5.527
3101.000			-44.196			-5.525
3200.000			-44.176			-5.522
3300.000			-44.155			-5.519
3401.000			-44.136			-5.517
3501.000			-44.117			-5.515
3602.000			-44.080			-5.510
3700.000			-44.062			-5.508
3800.000			-44.044			-5.506
3901.000			-44.027			-5.503
4000.000			-44.010			-5.501
4100.000			-43.994			-5.499
4201.000			-43.978			-5.497
4301.000			-43.948			-5.493
4401.000			-43.932			-5.491
4501.000			-43.916			-5.489
4600.000			-43.902			-5.488
4700.000			-43.887			-5.486
4801.000			-43.874			-5.484
4900.000			-43.860			-5.483
5000.000			-43.834			-5.479
5102.000			-43.821			-5.478
5201.000			-43.808			-5.476
5300.000			-43.795			-5.474
5401.000			-43.783			-5.473
5500.000			-43.772			-5.471
5600.000			-43.759			-5.470
5701.000			-43.735			-5.467
5800.000			-43.722			-5.465
5901.000			-43.712			-5.464
6002.000			-43.700			-5.463
6100.000			-43.689			-5.461
6200.000			-43.678			-5.460
6301.000			-43.667			-5.458
6400.000			-43.657			-5.457
6500.000			-43.637			-5.455
6601.000			-43.627			-5.453
6701.000			-43.617			-5.452
6802.000			-43.607			-5.451
6900.000			-43.597			-5.450
7000.000			-43.587			-5.448
7101.000			-43.578			-5.447
7200.000			-43.559			-5.445
7300.000			-43.550			-5.444
7402.000			-43.541			-5.443
7501.000			-43.532			-5.441
7600.000			-43.523			-5.440
7701.000			-43.514			-5.439
7800.000			-43.506			-5.438
7900.000			-43.489			-5.436
8001.000			-43.481			-5.435
8100.000			-43.472			-5.434
8201.000			-43.463			-5.433
8302.000			-43.455			-5.432
8400.000			-43.448			-5.431
8500.000			-43.440			-5.430
8601.000			-43.431			-5.429
8700.000			-43.416			-5.427
8800.000			-43.409			-5.426
8901.000			-43.401			-5.425
9001.000			-43.394			-5.424
9101.000			-43.386			-5.423
9201.000			-43.379			-5.422
9300.000			-43.371			-5.421
9400.000			-43.355			-5.419
9501.000			-43.349			-5.419
9600.000			-43.342			-5.418
9701.000			-43.335			-5.417
9802.000			-43.328			-5.416
9901.000			-43.320			-5.415
10000.000			-43.314			-5.414
10100.000			-43.300			-5.412
10200.000			-43.294			-5.412
10301.000			-43.288			-5.411
10400.000			-43.281			-5.410
10501.000			-43.274			-5.409
10602.000			-43.268			-5.408
10700.000			-43.262			-5.408
10800.000			-43.250			-5.406
10901.000			-43.244			-5.405
11000.000			-43.238			-5.405
11100.000			-43.232			-5.404
11201.000			-43.226			-5.403
11301.000			-43.219			-5.402
11401.000			-43.214			-5.402
11501.000			-43.207			-5.401
11600.000			-43.196			-5.400
11700.000			-43.190			-5.399
11801.000			-43.185			-5.398
11900.000			-43.179			-5.397
12000.000			-43.174			-5.397
12102.000			-43.168			-5.396
12201.000			-43.162			-5.395
12300.000			-43.150			-5.394
12401.000			-43.146			-5.393
12500.000			-43.140			-5.392
12600.000			-43.134			-5.392
12701.000			-43.128			-5.391
12800.000			-43.123			-5.390
12901.000			-43.119			-5.390
13002.000			-43.109			-5.389
13100.000			-43.104			-5.388
13200.000			-43.099			-5.387
13300.000			-43.093			-5.387
13400.000			-43.088			-5.386
13501.000			-43.084			-5.385
13601.000			-43.078			-5.385
13701.000			-43.068			-5.383
13801.000			-43.063			-5.383
13900.000			-43.058			-5.382
14000.000			-43.052			-5.382
14101.000			-43.047			-5.381
14200.000			-43.043			-5.380
14300.000			-43.039			-5.380
14402.000			-43.034			-5.379
14501.000			-43.026			-5.378
14600.000			-43.019			-5.377
14701.000			-43.015			-5.377
14800.000			-43.010			-5.376
14900.000			-43.006			-5.376
15001.000			-43.002			-5.375
15100.000			-42.998			-5.375
15201.000			-42.987			-5.373
15302.000			-42.983			-5.373
15400.000			-42.979			-5.372
15500.000			-42.975			-5.372
15601.000			-42.970			-5.371
15700.000			-42.966			-5.371
15800.000			-42.962			-5.370
15901.000			-42.953			-5.369
16001.000			-42.949			-5.369
16101.000			-42.945			-5.368
16201.000			-42.941			-5.368
16300.000			-42.938			-5.367
16400.000			-42.933			-5.367
16500.000			-42.928			-5.366
16600.000			-42.923			-5.365
16701.000			-42.915			-5.364
16801.000			-42.911			-5.364
16901.000			-42.908			-5.364
17001.000			-42.903			-5.363
17100.000			-42.899			-5.362
17200.000			-42.895			-5.362
17301.000			-42.891			-5.361
17400.000			-42.883			-5.360
17500.000			-42.879			-5.360
17602.000			-42.875			-5.359
17701.000			-42.872			-5.359
17800.000			-42.869			-5.359
17901.000			-42.865			-5.358
18000.000			-42.861			-5.358
18100.000			-42.853			-5.357
18201.000			-42.848			-5.356
18300.000			-42.845			-5.356
18401.000			-42.841			-5.355
18502.000			-42.837			-5.355
18600.000			-42.833			-5.354
18700.000			-42.829			-5.354
18801.000			-42.823			-5.353
18900.000			-42.819			-5.352
19000.000			-42.815			-5.352
19101.000			-42.812			-5.351
19201.000			-42.809			-5.351
19301.000			-42.805			-5.351
19401.000			-42.803			-5.350
19500.000			-42.799			-5.350
19600.000			-42.790			-5.349
19700.000			-42.787			-5.348
19800.000			-42.784			-5.348
19901.000			-42.781			-5.348
20001.000			-42.777			-5.347
20101.000			-42.773			-5.347
20201.000			-42.770			-5.346
20300.000			-42.763			-5.345
20400.000			-42.760			-5.345
20501.000			-42.756			-5.345
20600.000			-42.752			-5.344
20700.000			-42.750			-5.344
20802.000			-42.747			-5.343
20901.000			-42.744			-5.343
21000.000			-42.736			-5.342
21101.000			-42.734			-5.342
21200.000			-42.731			-5.341
21300.000			-42.727			-5.341
21401.000			-42.724			-5.341
21500.000			-42.719			-5.340
21601.000			-42.716			-5.340
21702.000			-42.713			-5.339
21800.000			-42.708			-5.339
21900.000			-42.705			-5.338
22001.000			-42.702			-5.338
22100.000			-42.699			-5.337
22200.000			-42.696			-5.337
22301.000			-42.693			-5.337
22401.000			-42.689			-5.336
22501.000			-42.684			-5.335
22601.000			-42.681			-5.335
22700.000			-42.677			-5.335
22800.000			-42.674			-5.334
22900.000			-42.671			-5.334
23000.000			-42.669			-5.334
23101.000			-42.666			-5.333
23201.000			-42.660			-5.332
23301.000			-42.658			-5.332
23401.000			-42.654			-5.332
23500.000			-42.651			-5.331
23600.000			-42.648			-5.331
23701.000			-42.644			-5.331
23800.000			-42.641			-5.330
23900.000			-42.636			-5.330
24002.000			-42.633			-5.329
24101.000			-42.630			-5.329
24200.000			-42.628			-5.328
24301.000			-42.625			-5.328
24400.000			-42.621			-5.328
24500.000			-42.620			-5.327
24601.000			-42.617			-5.327
24701.000			-42.611			-5.326
24801.000			-42.608			-5.326
24902.000			-42.605			-5.326
25000.000			-42.603			-5.325
25100.000			-42.600			-5.325
25201.000			-42.598			-5.325
25300.000			-42.595			-5.324
25400.000			-42.589			-5.324
25502.000			-42.587			-5.323
25601.000			-42.585			-5.323
25701.000			-42.581			-5.323
25801.000			-42.578			-5.322
25900.000			-42.576			-5.322
26000.000			-42.573			-5.322
26100.000			-42.568			-5.321
26200.000			-42.565			-5.321
26302.000			-42.563			-5.320
26401.000			-42.560			-5.320
26501.000			-42.557			-5.320
26601.000			-42.554			-5.319
26700.000			-42.552			-5.319
26800.000			-42.547			-5.318
26901.000			-42.546			-5.318
27000.000			-42.543			-5.318
27101.000			-42.540			-5.318
27202.000			-42.537			-5.317
27301.000			-42.535			-5.317
27400.000			-42.532			-5.317
27501.000			-42.530			-5.316
27600.000			-42.524			-5.315
27700.000			-42.520			-5.315
27801.000			-42.518			-5.315
27901.000			-42.516			-5.315
28001.000			-42.514			-5.314
28101.000			-42.512			-5.314
28200.000			-42.509			-5.314
28300.000			-42.505			-5.313
28401.000			-42.502			-5.313
28500.000			-42.500			-5.312
28600.000			-42.497			-5.312
28702.000			-42.496			-5.312
28801.000			-42.493			-5.312
28901.000			-42.490			-5.311
29001.000			-42.484			-5.311
29100.000			-42.483			-5.310
29200.000			-42.481			-5.310
29300.000			-42.479			-5.310
29400.000			-42.477			-5.310
29501.000			-42.474			-5.309
29601.000			-42.471			-5.309
29701.000			-42.467			-5.308
29801.000			-42.464			-5.308
29900.000			-42.462			-5.308
30000.000			-42.460			-5.308
30101.000			-42.458			-5.307
30200.000			-42.455			-5.307
30300.000			-42.452			-5.307
30402.000			-42.450			-5.306
30501.000			-42.446			-5.306
30600.000			-42.444			-5.306
30701.000			-42.442			-5.305
30800.000			-42.440			-5.305
30900.000			-42.437			-5.305
31001.000			-42.435			-5.304
31101.000			-42.432			-5.304
31201.000			-42.427			-5.303
31301.000			-42.426			-5.303
31400.000			-42.424			-5.303
31500.000			-42.421			-5.303
31601.000			-42.419			-5.302
31700.000			-42.417			-5.302
31800.000			-42.415			-5.302
31902.000			-42.411			-5.301
32001.000			-42.409			-5.301
32100.000			-42.407			-5.301
32201.000			-42.405			-5.301
32300.000			-42.402			-5.300
32400.000			-42.399			-5.300
32500.000			-42.397			-5.300
32600.000			-42.392			-5.299
32702.000			-42.391			-5.299
32801.000			-42.390			-5.299
32900.000			-42.387			-5.298
33001.000			-42.385			-5.298
33100.000			-42.383			-5.298
33200.000			-42.380			-5.298
33301.000			-42.378			-5.297
33400.000			-42.374			-5.297
33501.000			-42.372			-5.296
33602.000			-42.370			-5.296
33700.000			-42.368			-5.296
33800.000			-42.365			-5.296
33901.000			-42.363			-5.295
34000.000			-42.361			-5.295
34100.000			-42.357			-5.295
34201.000			-42.354			-5.294
34301.000			-42.352			-5.294
34400.000			-42.352			-5.294
34501.000			-42.350			-5.294
34600.000			-42.347			-5.293
34700.000			-42.345			-5.293
34801.000			-42.341			-5.293
34900.000			-42.339			-5.292
35001.000			-42.337			-5.292
35102.000			-42.335			-5.292
35200.000			-42.333			-5.292
35300.000			-42.331			-5.291
35401.000			-42.330			-5.291
35500.000			-42.325			-5.291
35600.000			-42.323			-5.290
35700.000			-42.322			-5.290
35801.000			-42.320			-5.290
35902.000			-42.318			-5.290
36000.000			-42.316			-5.290
36100.000			-42.314			-5.289
36201.000			-42.313			-5.289
36300.000			-42.309			-5.289
36400.000			-42.307			-5.288
36502.000			-42.304			-5.288
36601.000			-42.302			-5.288
36701.000			-42.301			-5.288
36801.000			-42.299			-5.287
36900.000			-42.296			-5.287
37000.000			-42.294			-5.287
37101.000			-42.292			-5.286
37200.000			-42.289			-5.286
37301.000			-42.287			-5.286
37402.000			-42.286			-5.286
37500.000			-42.283			-5.285
37600.000			-42.282			-5.285
37701.000			-42.278			-5.285
37800.000			-42.276			-5.285
37900.000			-42.275			-5.284
38001.000			-42.273			-5.284
38101.000			-42.271			-5.284
38201.000			-42.269			-5.284
38301.000			-42.267			-5.283
38400.000			-42.266			-5.283
38500.000			-42.262			-5.283
38601.000			-42.260			-5.282
38700.000			-42.257			-5.282
38800.000			-42.256			-5.282
38902.000			-42.253			-5.282
39001.000			-42.250			-5.281
39101.000			-42.249			-5.281
39200.000			-42.246			-5.281
39300.000			-42.245			-5.281
39401.000			-42.243			-5.280
39500.000			-42.242			-5.280
39600.000			-42.240			-5.280
39702.000			-42.239			-5.280
39801.000			-42.237			-5.280
39900.000			-42.234			-5.279
40001.000			-42.232			-5.279
40100.000			-42.229			-5.279
40200.000			-42.228			-5.278
40301.000			-42.227			-5.278
40400.000			-42.225			-5.278
40501.000			-42.223			-5.278
40602.000			-42.220			-5.278
40700.000			-42.218			-5.277
40800.000			-42.216			-5.277
40901.000			-42.214			-5.277
41000.000			-42.212			-5.277
41100.000			-42.211			-5.276
41202.000			-42.209			-5.276
41301.000			-42.207			-5.276
41401.000			-42.205			-5.276
41501.000			-42.203			-5.275
41600.000			-42.201			-5.275
41700.000			-42.200			-5.275
41801.000			-42.199			-5.275
41900.000			-42.197			-5.275
42000.000			-42.196			-5.275
42102.000			-42.191			-5.274
42201.000			-42.189			-5.274
42301.000			-42.188			-5.273
42400.000			-42.186			-5.273
42500.000			-42.185			-5.273
42601.000			-42.184			-5.273
42700.000			-42.182			-5.273
42801.000			-42.177			-5.272
42902.000			-42.176			-5.272
43000.000			-42.175			-5.272
43100.000			-42.173			-5.272
43201.000			-42.171			-5.271
43300.000			-42.170			-5.271
43400.000			-42.168			-5.271
43501.000			-42.166			-5.271
43601.000			-42.164			-5.271
43701.000			-42.162			-5.270
43801.000			-42.159			-5.270
43900.000			-42.158			-5.270
44000.000			-42.157			-5.270
44101.000			-42.157			-5.270
44200.000			-42.156			-5.269
44300.000			-42.152			-5.269
44402.000			-42.151			-5.269
44501.000			-42.147			-5.268
44600.000			-42.146			-5.268
44701.000			-42.144			-5.268
44800.000			-42.143			-5.268
44900.000			-42.142			-5.268
45001.000			-42.137			-5.267
45100.000			-42.136			-5.267
45202.000			-42.136			-5.267
45301.000			-42.135			-5.267
45400.000			-42.133			-5.267
45501.000			-42.131			-5.266
45600.000			-42.129			-5.266
45700.000			-42.125			-5.266
45801.000			-42.124			-5.265
45901.000			-42.123			-5.265
46001.000			-42.122			-5.265
46101.000			-42.120			-5.265
46200.000			-42.119			-5.265
46300.000			-42.117			-5.265
46401.000			-42.115			-5.264
46500.000			-42.113			-5.264
46600.000			-42.111			-5.264
46702.000			-42.108			-5.264
46801.000			-42.107			-5.263
46900.000			-42.107			-5.263
47001.000			-42.106			-5.263
47100.000			-42.104			-5.263
47200.000			-42.101			-5.263
47301.000			-42.100			-5.262
47400.000			-42.098			-5.262
47501.000			-42.097			-5.262
47602.000			-42.097			-5.262
47700.000			-42.094			-5.262
47800.000			-42.093			-5.262
47901.000			-42.090			-5.261
48000.000			-42.088			-5.261
48100.000			-42.086			-5.261
48201.000			-42.083			-5.260
48301.000			-42.081			-5.260
48402.000			-42.080			-5.260
48500.000			-42.081			-5.260
48600.000			-42.077			-5.260
48701.000			-42.076			-5.260
48800.000			-42.076			-5.259
48900.000			-42.074			-5.259
49001.000			-42.072			-5.259
49101.000			-42.071			-5.259
49201.000			-42.070			-5.259
49301.000			-42.066			-5.258
49400.000			-42.064			-5.258
49500.000			-42.063			-5.258
49601.000			-42.062			-5.258
49700.000			-42.061			-5.258
49800.000			-42.060			-5.257
49902.000			-42.058			-5.257
50001.000			-42.056			-5.257
50100.000			-42.054			-5.257
50201.000			-42.052			-5.257
50300.000			-42.051			-5.256
50400.000			-42.049			-5.256
50501.000			-42.048			-5.256
50601.000			-42.047			-5.256
50701.000			-42.046			-5.256
50802.000			-42.042			-5.255
50900.000			-42.041			-5.255
51000.000			-42.039			-5.255
51101.000			-42.037			-5.255
51200.000			-42.036			-5.255
51300.000			-42.037			-5.255
51402.000			-42.035			-5.254
51501.000			-42.031			-5.254
51600.000			-42.029			-5.254
51700.000			-42.028			-5.254
51800.000			-42.029			-5.254
51901.000			-42.026			-5.253
52000.000			-42.025			-5.253
52100.000			-42.023			-5.253
52202.000			-42.021			-5.253
52301.000			-42.019			-5.252
52400.000			-42.018			-5.252
52501.000			-42.016			-5.252
52600.000			-42.015			-5.252
52700.000			-42.014			-5.252
52801.000			-42.013			-5.252
52901.000			-42.011			-5.251
53001.000			-42.009			-5.251
53101.000			-42.008			-5.251
53200.000			-42.006			-5.251
53300.000			-42.004			-5.251
53401.000			-42.003			-5.250
53500.000			-42.002			-5.250
53600.000			-42.000			-5.250
53702.000			-41.998			-5.250
53801.000			-41.997			-5.250
53900.000			-41.995			-5.249
54001.000			-41.993			-5.249
54100.000			-41.992			-5.249
54200.000			-41.991			-5.249
54301.000			-41.990			-5.249
54400.000			-41.989			-5.249
54501.000			-41.987			-5.248
54602.000			-41.985			-5.248
54700.000			-41.984			-5.248
54800.000			-41.983			-5.248
54900.000			-41.982			-5.248
55000.000			-41.980			-5.248
55101.000			-41.977			-5.247
55200.000			-41.977			-5.247
55301.000			-41.975			-5.247
55402.000			-41.974			-5.247
55501.000			-41.972			-5.247
55600.000			-41.971			-5.246
55701.000			-41.971			-5.246
55800.000			-41.970			-5.246
55900.000			-41.967			-5.246
56001.000			-41.964			-5.246
56100.000			-41.963			-5.245
56201.000			-41.962			-5.245
56302.000			-41.962			-5.245
56400.000			-41.960			-5.245
56500.000			-41.959			-5.245
56601.000			-41.957			-5.245
56700.000			-41.956			-5.244
56800.000			-41.954			-5.244
56901.000			-41.952			-5.244
57001.000			-41.951			-5.244
57101.000			-41.950			-5.244
57201.000			-41.949			-5.244
57300.000			-41.946			-5.243
57400.000			-41.946			-5.243
57501.000			-41.944			-5.243
57600.000			-41.942			-5.243
57700.000			-41.942			-5.243
57802.000			-41.941			-5.243
57901.000			-41.939			-5.242
58000.000			-41.936			-5.242
58100.000			-41.934			-5.242
58200.000			-41.933			-5.242
58301.000			-41.933			-5.242
58400.000			-41.932			-5.241
58500.000			-41.931			-5.241
58602.000			-41.930			-5.241
58701.000			-41.928			-5.241
58800.000			-41.925			-5.241
58901.000			-41.924			-5.240
59000.000			-41.922			-5.240
59100.000			-41.923			-5.240
59201.000			-41.921			-5.240
59300.000			-41.919			-5.240
59401.000			-41.918			-5.240
59502.000			-41.916			-5.240
59601.000			-41.914			-5.239
59700.000			-41.914			-5.239
59801.000			-41.913			-5.239
59900.000			-41.911			-5.239
60000.000			-41.910			-5.239
60101.000			-41.909			-5.239
60201.000			-41.907			-5.238
60301.000			-41.905			-5.238
60402.000			-41.905			-5.238
60500.000			-41.904			-5.238
60600.000			-41.903			-5.238
60701.000			-41.901			-5.238
60800.000			-41.899			-5.237
60900.000			-41.898			-5.237
61001.000			-41.896			-5.237
61101.000			-41.895			-5.237
61202.000			-41.894			-5.237
61300.000			-41.893			-5.237
61400.000			-41.892			-5.237
61501.000			-41.891			-5.236
61600.000			-41.889			-5.236
61700.000			-41.887			-5.236
61801.000			-41.886			-5.236
61901.000			-41.885			-5.236
62001.000			-41.883			-5.235
62101.000			-41.882			-5.235
62200.000			-41.881			-5.235
62300.000			-41.880			-5.235
62401.000			-41.878			-5.235
62500.000			-41.877			-5.235
62600.000			-41.875			-5.234
62702.000			-41.874			-5.234
62801.000			-41.875			-5.234
62900.000			-41.873			-5.234
63001.000			-41.872			-5.234
63100.000			-41.870			-5.234
63200.000			-41.869			-5.234
63301.000			-41.868			-5.233
63400.000			-41.865			-5.233
63501.000			-41.865			-5.233
63602.000			-41.863			-5.233
63700.000			-41.862			-5.233
63800.000			-41.860			-5.232
63901.000			-41.859			-5.232
64000.000			-41.857			-5.232
64100.000			-41.857			-5.232
64201.000			-41.856			-5.232
64301.000			-41.854			-5.232
64402.000			-41.853			-5.232
64500.000			-41.853			-5.232
64600.000			-41.849			-5.231
64701.000			-41.848			-5.231
64800.000			-41.847			-5.231
64900.000			-41.847			-5.231
65001.000			-41.845			-5.231
65101.000			-41.844			-5.231
65201.000			-41.844			-5.231
65301.000			-41.841			-5.230
65400.000			-41.840			-5.230
65500.000			-41.840			-5.230
65601.000			-41.839			-5.230
65700.000			-41.838			-5.230
65800.000			-41.836			-5.230
65902.000			-41.835			-5.229
66001.000			-41.833			-5.229
66100.000			-41.832			-5.229
66201.000			-41.832			-5.229
66300.000			-41.831			-5.229
66400.000			-41.828			-5.229
66501.000			-41.826			-5.228
66600.000			-41.826			-5.228
66701.000			-41.824			-5.228
66802.000			-41.822			-5.228
66900.000			-41.821			-5.228
67000.000			-41.821			-5.228
67101.000			-41.820			-5.228
67200.000			-41.819			-5.227
67300.000			-41.818			-5.227
67401.000			-41.817			-5.227
67501.000			-41.814			-5.227
67602.000			-41.813			-5.227
67700.000			-41.813			-5.227
67800.000			-41.812			-5.227
67901.000			-41.811			-5.226
68000.000			-41.811			-5.226
68100.000			-41.809			-5.226
68201.000			-41.807			-5.226
68301.000			-41.806			-5.226
68401.000			-41.804			-5.226
68501.000			-41.803			-5.225
68600.000			-41.802			-5.225
68700.000			-41.802			-5.225
68801.000			-41.801			-5.225
68900.000			-41.799			-5.225
69000.000			-41.797			-5.225
69101.000			-41.795			-5.224
69201.000			-41.794			-5.224
69301.000			-41.793			-5.224
69401.000			-41.793			-5.224
69500.000			-41.793			-5.224
69600.000			-41.791			-5.224
69701.000			-41.789			-5.224
69800.000			-41.788			-5.224
69900.000			-41.788			-5.223
70002.000			-41.786			-5.223
70101.000			-41.785			-5.223
70200.000			-41.784			-5.223
70301.000			-41.783			-5.223
70400.000			-41.783			-5.223
70500.000			-41.780			-5.223
70601.000			-41.780			-5.222
70700.000			-41.779			-5.222
70800.000			-41.777			-5.222
70902.000			-41.776			-5.222
71001.000			-41.775			-5.222
71101.000			-41.774			-5.222
71200.000			-41.772			-5.221
71300.000			-41.771			-5.221
71401.000			-41.771			-5.221
71500.000			-41.770			-5.221
71600.000			-41.768			-5.221
71702.000			-41.767			-5.221
71801.000			-41.765			-5.221
71900.000			-41.765			-5.221
72001.000			-41.764			-5.221
72100.000			-41.764			-5.220
72200.000			-41.762			-5.220
72301.000			-41.761			-5.220
72400.000			-41.759			-5.220
72501.000			-41.758			-5.220
72602.000			-41.758			-5.220
72700.000			-41.756			-5.220
72800.000			-41.755			-5.219
72901.000			-41.754			-5.219
73000.000			-41.754			-5.219
73100.000			-41.752			-5.219
73201.000			-41.751			-5.219
73301.000			-41.749			-5.219
73401.000			-41.749			-5.219
73501.000			-41.746			-5.218
73600.000			-41.745			-5.218
73700.000			-41.744			-5.218
73801.000			-41.743			-5.218
73900.000			-41.742			-5.218
74000.000			-41.741			-5.218
74102.000			-41.740			-5.218
74201.000			-41.739			-5.217
74301.000			-41.738			-5.217
74400.000			-41.737			-5.217
74500.000			-41.736			-5.217
74601.000			-41.735			-5.217
74700.000			-41.734			-5.217
74800.000			-41.732			-5.217
74902.000			-41.732			-5.217
75001.000			-41.731			-5.216
75100.000			-41.730			-5.216
75201.000			-41.728			-5.216
75300.000			-41.728			-5.216
75400.000			-41.726			-5.216
75501.000			-41.726			-5.216
75600.000			-41.725			-5.216
75701.000			-41.723			-5.215
75802.000			-41.721			-5.215
75900.000			-41.720			-5.215
76000.000			-41.719			-5.215
76101.000			-41.718			-5.215
76200.000			-41.718			-5.215
76300.000			-41.717			-5.215
76401.000			-41.715			-5.214
76501.000			-41.715			-5.214
76601.000			-41.713			-5.214
76702.000			-41.713			-5.214
76800.000			-41.712			-5.214
76900.000			-41.711			-5.214
77001.000			-41.709			-5.214
77100.000			-41.708			-5.214
77200.000			-41.707			-5.213
77300.000			-41.706			-5.213
77401.000			-41.705			-5.213
77502.000			-41.704			-5.213
77600.000			-41.702			-5.213
77700.000			-41.701			-5.213
77801.000			-41.700			-5.212
77900.000			-41.699			-5.212
78000.000			-41.699			-5.212
78101.000			-41.699			-5.212
78201.000			-41.698			-5.212
78301.000			-41.696			-5.212
78401.000			-41.695			-5.212
78500.000			-41.693			-5.212
78600.000			-41.692			-5.211
78701.000			-41.691			-5.211
78800.000			-41.691			-5.211
78900.000			-41.690			-5.211
79001.000			-41.688			-5.211
79101.000			-41.687			-5.211
79201.000			-41.686			-5.211
79301.000			-41.685			-5.211
79400.000			-41.683			-5.210
79500.000			-41.683			-5.210
79601.000			-41.682			-5.210
79700.000			-41.682			-5.210
79800.000			-41.680			-5.210
79902.000			-41.678			-5.210
80001.000			-41.678			-5.210
80100.000			-41.678			-5.210
80201.000			-41.677			-5.210
80300.000			-41.676			-5.209
80400.000			-41.675			-5.209
80500.000			-41.673			-5.209
80600.000			-41.673			-5.209
80702.000			-41.672			-5.209
80801.000			-41.670			-5.209
80901.000			-41.669			-5.209
81001.000			-41.668			-5.209
81100.000			-41.667			-5.208
81200.000			-41.666			-5.208
81301.000			-41.666			-5.208
81400.000			-41.665			-5.208
81500.000			-41.663			-5.208
81602.000			-41.662			-5.208
81701.000			-41.662			-5.208
81800.000			-41.662			-5.208
81901.000			-41.660			-5.208
82000.000			-41.656			-5.207
82100.000			-41.657			-5.207
82201.000			-41.657			-5.207
82300.000			-41.656			-5.207
82401.000			-41.654			-5.207
82502.000			-41.653			-5.207
82600.000			-41.651			-5.206
82700.000			-41.651			-5.206
82801.000			-41.650			-5.206
82900.000			-41.649			-5.206
83000.000			-41.649			-5.206
83101.000			-41.648			-5.206
83201.000			-41.646			-5.206
83301.000			-41.645			-5.206
83401.000			-41.643			-5.205
83500.000			-41.641			-5.205
83600.000			-41.642			-5.205
83700.000			-41.641			-5.205
83800.000			-41.639			-5.205
83901.000			-41.639			-5.205
84001.000			-41.637			-5.205
84101.000			-41.636			-5.204
84201.000			-41.636			-5.204
84300.000			-41.636			-5.204
84400.000			-41.635			-5.204
84501.000			-41.635			-5.204
84600.000			-41.633			-5.204
84700.000			-41.630			-5.204
84802.000			-41.629			-5.204
84901.000			-41.630			-5.204
85000.000			-41.628			-5.204
85101.000			-41.628			-5.203
85200.000			-41.627			-5.203
85300.000			-41.626			-5.203
85401.000			-41.624			-5.203
85500.000			-41.622			-5.203
85601.000			-41.621			-5.203
85702.000			-41.620			-5.203
85800.000			-41.620			-5.202
85900.000			-41.619			-5.202
86001.000			-41.617			-5.202
86100.000			-41.617			-5.202
86200.000			-41.617			-5.202
86301.000			-41.615			-5.202
86401.000			-41.614			-5.202
86501.000			-41.613			-5.202
86601.000			-41.613			-5.202
86700.000			-41.612			-5.202
86800.000			-41.611			-5.201
86900.000			-41.610			-5.201
87000.000			-41.608			-5.201
87101.000			-41.609			-5.201
87201.000			-41.608			-5.201
87301.000			-41.608			-5.201
87401.000			-41.608			-5.201
87500.000			-41.606			-5.201
87600.000			-41.604			-5.200
87701.000			-41.604			-5.200
87800.000			-41.600			-5.200
87900.000			-41.601			-5.200
88002.000			-41.601			-5.200
88101.000			-41.599			-5.200
88201.000			-41.598			-5.200
88301.000			-41.597			-5.200
88400.000			-41.596			-5.200
88500.000			-41.596			-5.200
88601.000			-41.594			-5.199
88700.000			-41.594			-5.199
88800.000			-41.593			-5.199
88902.000			-41.592			-5.199
89001.000			-41.592			-5.199
89100.000			-41.590			-5.199
89201.000			-41.588			-5.199
89300.000			-41.588			-5.198
89400.000			-41.587			-5.198
89501.000			-41.587			-5.198
89600.000			-41.585			-5.198
89701.000			-41.584			-5.198
89802.000			-41.584			-5.198
89901.000			-41.583			-5.198
90000.000			-41.582			-5.198
90100.000			-41.582			-5.198
90200.000			-41.581			-5.198
90301.000			-41.579			-5.197
90400.000			-41.579			-5.197
90500.000			-41.579			-5.197
90602.000			-41.578			-5.197
90701.000			-41.576			-5.197
90800.000			-41.575			-5.197
90901.000			-41.574			-5.197
91000.000			-41.574			-5.197
91100.000			-41.574			-5.197
91201.000			-41.572			-5.196
91300.000			-41.570			-5.196
91401.000			-41.568			-5.196
91502.000			-41.568			-5.196
91600.000			-41.568			-5.196
91700.000			-41.568			-5.196
91801.000			-41.568			-5.196
91900.000			-41.567			-5.196
92000.000			-41.565			-5.196
92101.000			-41.564			-5.195
92201.000			-41.563			-5.195
92301.000			-41.562			-5.195
92401.000			-41.562			-5.195
92500.000			-41.559			-5.195
92600.000			-41.559			-5.195
92701.000			-41.559			-5.195
92800.000			-41.558			-5.195
92900.000			-41.555			-5.194
93002.000			-41.553			-5.194
93101.000			-41.553			-5.194
93200.000			-41.553			-5.194
93300.000			-41.553			-5.194
93400.000			-41.553			-5.194
93501.000			-41.551			-5.194
93600.000			-41.551			-5.194
93700.000			-41.550			-5.194
93802.000			-41.548			-5.193
93901.000			-41.547			-5.193
94001.000			-41.546			-5.193
94101.000			-41.546			-5.193
94200.000			-41.545			-5.193
94300.000			-41.543			-5.193
94401.000			-41.543			-5.193
94500.000			-41.542			-5.193
94600.000			-41.542			-5.193
94702.000			-41.541			-5.193
94801.000			-41.540			-5.193
94900.000			-41.540			-5.192
95001.000			-41.538			-5.192
95100.000			-41.537			-5.192
95200.000			-41.536			-5.192
95301.000			-41.536			-5.192
95400.000			-41.535			-5.192
95501.000			-41.534			-5.192
95602.000			-41.532			-5.192
95700.000			-41.532			-5.191
95800.000			-41.530			-5.191
95901.000			-41.529			-5.191
96000.000			-41.529			-5.191
96100.000			-41.527			-5.191
96201.000			-41.527			-5.191
96301.000			-41.527			-5.191
96402.000			-41.525			-5.191
96500.000			-41.525			-5.191
96600.000			-41.525			-5.191
96701.000			-41.523			-5.190
96800.000			-41.522			-5.190
96900.000			-41.521			-5.190
97001.000			-41.521			-5.190
97101.000			-41.520			-5.190
97201.000			-41.519			-5.190
97301.000			-41.518			-5.190
97400.000			-41.518			-5.190
97500.000			-41.517			-5.190
97601.000			-41.516			-5.189
97700.000			-41.516			-5.189
97800.000			-41.514			-5.189
97902.000			-41.514			-5.189
98001.000			-41.514			-5.189
98101.000			-41.512			-5.189
98201.000			-41.511			-5.189
98300.000			-41.511			-5.189
98400.000			-41.509			-5.189
98501.000			-41.509			-5.189
98600.000			-41.509			-5.189
98700.000			-41.506			-5.188
98802.000			-41.505			-5.188
98901.000			-41.504			-5.188
99000.000			-41.504			-5.188
99101.000			-41.503			-5.188
99200.000			-41.503			-5.188
99300.000			-41.502			-5.188
99401.000			-41.500			-5.188
99500.000			-41.501			-5.188
99602.000			-41.499			-5.187
99701.000			-41.500			-5.187
99800.000			-41.499			-5.187
99901.000			-41.497			-5.187
100000.000			-41.496			-5.187
100100.000			-41.495			-5.187
100201.000			-41.494			-5.187
100300.000			-41.493			-5.187
100401.000			-41.492			-5.186
100502.000			-41.492			-5.187
100600.000			-41.491			-5.186
100700.000			-41.492			-5.186
100801.000			-41.491			-5.186
100900.000			-41.488			-5.186
101000.000			-41.488			-5.186
101101.000			-41.487			-5.186
101201.000			-41.487			-5.186
101301.000			-41.486			-5.186
101402.000			-41.485			-5.186
101500.000			-41.484			-5.186
101600.000			-41.483			-5.185
101701.000			-41.482			-5.185
101800.000			-41.482			-5.185
101900.000			-41.482			-5.185
102001.000			-41.480			-5.185
102101.000			-41.479			-5.185
102201.000			-41.478			-5.185
102301.000			-41.477			-5.185
102400.000			-41.476			-5.184
102500.000			-41.475			-5.184
102601.000			-41.474			-5.184
102700.000			-41.474			-5.184
102800.000			-41.473			-5.184
102902.000			-41.473			-5.184
103001.000			-41.473			-5.184
103101.000			-41.471			-5.184
103200.000			-41.471			-5.184
103300.000			-41.470			-5.184
103401.000			-41.469			-5.184
103500.000			-41.468			-5.184
103600.000			-41.468			-5.183
103702.000			-41.467			-5.183
103801.000			-41.465			-5.183
103900.000			-41.465			-5.183
104001.000			-41.464			-5.183
104100.000			-41.463			-5.183
104200.000			-41.462			-5.183
104301.000			-41.462			-5.183
104400.000			-41.462			-5.183
104501.000			-41.460			-5.182
104602.000			-41.459			-5.182
104701.000			-41.459			-5.182
104800.000			-41.458			-5.182
104901.000			-41.457			-5.182
105000.000			-41.456			-5.182
105100.000			-41.455			-5.182
105201.000			-41.455			-5.182
105301.000			-41.454			-5.182
105401.000			-41.453			-5.182
105502.000			-41.452			-5.181
105600.000			-41.452			-5.182
105700.000			-41.452			-5.181
105801.000			-41.450			-5.181
105900.000			-41.449			-5.181
106000.000			-41.448			-5.181
106100.000			-41.448			-5.181
106201.000			-41.447			-5.181
106302.000			-41.447			-5.181
106400.000			-41.446			-5.181
106500.000			-41.445			-5.181
106601.000			-41.445			-5.181
106700.000			-41.444			-5.180
106800.000			-41.442			-5.180
106901.000			-41.441			-5.180
107001.000			-41.440			-5.180
107101.000			-41.440			-5.180
107201.000			-41.441			-5.180
107300.000			-41.440			-5.180
107400.000			-41.437			-5.180
107501.000			-41.436			-5.180
107600.000			-41.436			-5.180
107700.000			-41.436			-5.179
107801.000			-41.435			-5.179
107901.000			-41.435			-5.179
108001.000			-41.434			-5.179
108101.000			-41.430			-5.179
108200.000			-41.431			-5.179
108300.000			-41.432			-5.179
108401.000			-41.432			-5.179
108500.000			-41.431			-5.179
108600.000			-41.429			-5.179
108702.000			-41.429			-5.179
108801.000			-41.427			-5.178
108900.000			-41.426			-5.178
109001.000			-41.426			-5.178
109100.000			-41.425			-5.178
109200.000			-41.424			-5.178
109300.000			-41.423			-5.178
109400.000			-41.423			-5.178
109502.000			-41.423			-5.178
109601.000			-41.420			-5.177
109700.000			-41.419			-5.177
109801.000			-41.418			-5.177
109900.000			-41.418			-5.177
110000.000			-41.417			-5.177
110101.000			-41.417			-5.177
110200.000			-41.416			-5.177
110301.000			-41.416			-5.177
110402.000			-41.414			-5.177
110500.000			-41.414			-5.177
110600.000			-41.414			-5.177
110701.000			-41.413			-5.177
110800.000			-41.413			-5.177
110900.000			-41.412			-5.176
111001.000			-41.410			-5.176
111101.000			-41.410			-5.176
111201.000			-41.410			-5.176
111301.000			-41.408			-5.176
111400.000			-41.407			-5.176
111500.000			-41.406			-5.176
111601.000			-41.405			-5.176
111700.000			-41.405			-5.176
111800.000			-41.405			-5.176
111902.000			-41.405			-5.176
112001.000			-41.403			-5.175
112100.000			-41.402			-5.175
112201.000			-41.402			-5.175
112300.000			-41.402			-5.175
112400.000			-41.400			-5.175
112500.000			-41.399			-5.175
112600.000			-41.400			-5.175
112701.000			-41.399			-5.175
112801.000			-41.398			-5.175
112901.000			-41.398			-5.175
113001.000			-41.397			-5.175
113100.000			-41.396			-5.174
113200.000			-41.395			-5.174
113301.000			-41.394			-5.174
113400.000			-41.394			-5.174
113500.000			-41.392			-5.174
113602.000			-41.392			-5.174
113701.000			-41.393			-5.174
113800.000			-41.392			-5.174
113901.000			-41.389			-5.174
114000.000			-41.388			-5.174
114100.000			-41.388			-5.173
114201.000			-41.386			-5.173
114300.000			-41.386			-5.173
114401.000			-41.387			-5.173
114502.000			-41.386			-5.173
114601.000			-41.385			-5.173
114700.000			-41.384			-5.173
114801.000			-41.382			-5.173
114900.000			-41.383			-5.173
115000.000			-41.382			-5.173
115101.000			-41.382			-5.173
115200.000			-41.382			-5.173
115301.000			-41.381			-5.173
115402.000			-41.380			-5.172
115500.000			-41.378			-5.172
115600.000			-41.378			-5.172
115700.000			-41.378			-5.172
115800.000			-41.377			-5.172
115901.000			-41.377			-5.172
116000.000			-41.376			-5.172
116101.000			-41.374			-5.172
116202.000			-41.372			-5.171
116301.000			-41.371			-5.171
116400.000			-41.371			-5.171
116501.000			-41.371			-5.171
116600.000			-41.370			-5.171
116700.000			-41.369			-5.171
116801.000			-41.369			-5.171
116900.000			-41.368			-5.171
117001.000			-41.367			-5.171
117102.000			-41.368			-5.171
117200.000			-41.367			-5.171
117300.000			-41.366			-5.171
117401.000			-41.364			-5.171
117500.000			-41.364			-5.171
117600.000			-41.364			-5.170
117701.000			-41.362			-5.170
117801.000			-41.360			-5.170
117901.000			-41.361			-5.170
118001.000			-41.360			-5.170
118100.000			-41.360			-5.170
118200.000			-41.359			-5.170
118301.000			-41.358			-5.170
118400.000			-41.357			-5.170
118500.000			-41.358			-5.170
118601.000			-41.358			-5.170
118701.000			-41.357			-5.170
118802.000			-41.356			-5.169
118900.000			-41.355			-5.169
119000.000			-41.353			-5.169
119101.000			-41.353			-5.169
119200.000			-41.353			-5.169
119300.000			-41.352			-5.169
119401.000			-41.349			-5.169
119501.000			-41.349			-5.169
119601.000			-41.350			-5.169
119702.000			-41.349			-5.169
119800.000			-41.348			-5.169
119900.000			-41.347			-5.168
120001.000			-41.346			-5.168
120100.000			-41.346			-5.168
120200.000			-41.346			-5.168
120301.000			-41.345			-5.168
120401.000			-41.344			-5.168
120501.000			-41.342			-5.168
120601.000			-41.341			-5.168
120700.000			-41.342			-5.168
120800.000			-41.342			-5.168
120901.000			-41.340			-5.168
121000.000			-41.339			-5.167
121100.000			-41.339			-5.167
121202.000			-41.338			-5.167
121301.000			-41.338			-5.167
121400.000			-41.337			-5.167
121501.000			-41.336			-5.167
121600.000			-41.336			-5.167
121700.000			-41.336			-5.167
121801.000			-41.335			-5.167
121900.000			-41.334			-5.167
122002.000			-41.333			-5.167
122101.000			-41.333			-5.167
122200.000			-41.332			-5.166
122301.000			-41.330			-5.166
122400.000			-41.330			-5.166
122500.000			-41.330			-5.166
122601.000			-41.330			-5.166
122700.000			-41.329			-5.166
122801.000			-41.328			-5.166
122902.000			-41.326			-5.166
123000.000			-41.326			-5.166
123100.000			-41.325			-5.166
123201.000			-41.324			-5.166
123300.000			-41.324			-5.165
123400.000			-41.323			-5.165
123501.000			-41.323			-5.165
123601.000			-41.322			-5.165
123701.000			-41.322			-5.165
123801.000			-41.321			-5.165
123900.000			-41.321			-5.165
124000.000			-41.321			-5.165
124101.000			-41.319			-5.165
124200.000			-41.318			-5.165
124300.000			-41.316			-5.165
124402.000			-41.316			-5.164
124501.000			-41.315			-5.164
124601.000			-41.315			-5.164
124701.000			-41.315			-5.164
124800.000			-41.314			-5.164
124900.000			-41.314			-5.164
125001.000			-41.314			-5.164
125100.000			-41.313			-5.164
125200.000			-41.312			-5.164
125302.000			-41.311			-5.164
125401.000			-41.310			-5.164
125501.000			-41.310			-5.164
125600.000			-41.308			-5.164
125700.000			-41.308			-5.163
125801.000			-41.308			-5.164
125900.000			-41.307			-5.163
126000.000			-41.307			-5.163
126102.000			-41.306			-5.163
126201.000			-41.305			-5.163
126300.000			-41.304			-5.163
126401.000			-41.303			-5.163
126500.000			-41.303			-5.163
126600.000			-41.303			-5.163
126701.000			-41.303			-5.163
126800.000			-41.302			-5.163
126901.000			-41.300			-5.163
127002.000			-41.300			-5.162
127100.000			-41.300			-5.163
127200.000			-41.299			-5.162
127301.000			-41.298			-5.162
127400.000			-41.298			-5.162
127500.000			-41.297			-5.162
127601.000			-41.296			-5.162
127701.000			-41.295			-5.162
127801.000			-41.295			-5.162
127902.000			-41.294			-5.162
128000.000			-41.293			-5.162
128100.000			-41.293			-5.162
128201.000			-41.294			-5.162
128300.000			-41.293			-5.162
128400.000			-41.291			-5.161
128500.000			-41.291			-5.161
128601.000			-41.289			-5.161
128702.000			-41.288			-5.161
128800.000			-41.288			-5.161
128900.000			-41.288			-5.161
129001.000			-41.287			-5.161
129100.000			-41.286			-5.161
129200.000			-41.286			-5.161
129301.000			-41.285			-5.161
129400.000			-41.285			-5.161
129501.000			-41.285			-5.161
129602.000			-41.284			-5.161
129700.000			-41.283			-5.160
129800.000			-41.282			-5.160
129901.000			-41.281			-5.160
130000.000			-41.280			-5.160
130100.000			-41.279			-5.160
130201.000			-41.280			-5.160
130301.000			-41.279			-5.160
130401.000			-41.279			-5.160
130501.000			-41.279			-5.160
130600.000			-41.278			-5.160
130700.000			-41.276			-5.159
130801.000			-41.276			-5.159
130900.000			-41.275			-5.159
131000.000			-41.274			-5.159
131101.000			-41.274			-5.159
131201.000			-41.273			-5.159
131301.000			-41.272			-5.159
131401.000			-41.271			-5.159
131500.000			-41.271			-5.159
131600.000			-41.270			-5.159
131700.000			-41.269			-5.159
131800.000			-41.269			-5.159
131901.000			-41.269			-5.159
132001.000			-41.268			-5.159
132101.000			-41.267			-5.158
132202.000			-41.266			-5.158
132300.000			-41.266			-5.158
132400.000			-41.265			-5.158
132501.000			-41.265			-5.158
132600.000			-41.264			-5.158
132700.000			-41.264			-5.158
132801.000			-41.262			-5.158
132901.000			-41.261			-5.158
133001.000			-41.260			-5.158
133102.000			-41.260			-5.157
133200.000			-41.260			-5.157
133300.000			-41.259			-5.157
133401.000			-41.260			-5.157
133500.000			-41.259			-5.157
133600.000			-41.257			-5.157
133701.000			-41.256			-5.157
133801.000			-41.256			-5.157
133901.000			-41.256			-5.157
134002.000			-41.255			-5.157
134100.000			-41.255			-5.157
134200.000			-41.254			-5.157
134301.000			-41.253			-5.157
134400.000			-41.253			-5.157
134500.000			-41.252			-5.156
134601.000			-41.251			-5.156
134701.000			-41.252			-5.156
134802.000			-41.251			-5.156
134901.000			-41.250			-5.156
135000.000			-41.248			-5.156
135101.000			-41.248			-5.156
135200.000			-41.248			-5.156
135300.000			-41.247			-5.156
135401.000			-41.246			-5.156
135500.000			-41.245			-5.156
135600.000			-41.245			-5.156
135702.000			-41.243			-5.155
135801.000			-41.243			-5.155
135900.000			-41.242			-5.155
136001.000			-41.242			-5.155
136100.000			-41.243			-5.155
136200.000			-41.241			-5.155
136301.000			-41.241			-5.155
136400.000			-41.240			-5.155
136500.000			-41.238			-5.155
136602.000			-41.238			-5.155
136701.000			-41.238			-5.155
136800.000			-41.237			-5.155
136901.000			-41.237			-5.155
137000.000			-41.236			-5.154
137100.000			-41.236			-5.154
137201.000			-41.234			-5.154
137300.000			-41.233			-5.154
137400.000			-41.234			-5.154
137502.000			-41.233			-5.154
137601.000			-41.232			-5.154
137700.000			-41.232			-5.154
137801.000			-41.232			-5.154
137900.000			-41.231			-5.154
138000.000			-41.231			-5.154
138100.000			-41.231			-5.154
138200.000			-41.231			-5.154
138301.000			-41.229			-5.154
138401.000			-41.228			-5.154
138501.000			-41.228			-5.154
138601.000			-41.227			-5.153
138700.000			-41.227			-5.153
138800.000			-41.227			-5.153
138901.000			-41.226			-5.153
139000.000			-41.225			-5.153
139100.000			-41.226			-5.153
139201.000			-41.226			-5.153
139301.000			-41.225			-5.153
139401.000			-41.223			-5.153
139501.000			-41.222			-5.153
139600.000			-41.222			-5.153
139700.000			-41.221			-5.153
139801.000			-41.221			-5.153
139900.000			-41.222			-5.153
140000.000			-41.221			-5.153
140101.000			-41.220			-5.153
140201.000			-41.219			-5.152
140301.000			-41.218			-5.152
140401.000			-41.217			-5.152
140500.000			-41.216			-5.152
140600.000			-41.216			-5.152
140701.000			-41.216			-5.152
140800.000			-41.215			-5.152
140900.000			-41.215			-5.152
141001.000			-41.213			-5.152
141101.000			-41.213			-5.152
141202.000			-41.213			-5.152
141300.000			-41.213			-5.152
141400.000			-41.213			-5.152
141501.000			-41.210			-5.151
141600.000			-41.211			-5.151
141700.000			-41.210			-5.151
141801.000			-41.208			-5.151
141901.000			-41.208			-5.151
142001.000			-41.207			-5.151
142102.000			-41.207			-5.151
142200.000			-41.207			-5.151
142300.000			-41.206			-5.151
142401.000			-41.206			-5.151
142500.000			-41.205			-5.151
142600.000			-41.204			-5.150
142701.000			-41.204			-5.150
142801.000			-41.204			-5.150
142901.000			-41.203			-5.150
143001.000			-41.202			-5.150
143100.000			-41.200			-5.150
143200.000			-41.200			-5.150
143301.000			-41.201			-5.150
143400.000			-41.200			-5.150
143500.000			-41.199			-5.150
143601.000			-41.199			-5.150
143701.000			-41.197			-5.150
143801.000			-41.197			-5.150
143901.000			-41.197			-5.150
144000.000			-41.196			-5.150
144100.000			-41.196			-5.150
144201.000			-41.195			-5.149
144300.000			-41.195			-5.149
144400.000			-41.194			-5.149
144500.000			-41.194			-5.149
144601.000			-41.192			-5.149
144702.000			-41.192			-5.149
144801.000			-41.192			-5.149
144900.000			-41.192			-5.149
145001.000			-41.191			-5.149
145100.000			-41.191			-5.149
145200.000			-41.190			-5.149
145301.000			-41.188			-5.149
145400.000			-41.189			-5.149
145500.000			-41.188			-5.149
145602.000			-41.188			-5.149
145701.000			-41.187			-5.148
145800.000			-41.186			-5.148
145901.000			-41.185			-5.148
146000.000			-41.184			-5.148
146100.000			-41.185			-5.148
146201.000			-41.185			-5.148
146300.000			-41.184			-5.148
146400.000			-41.183			-5.148
146502.000			-41.182			-5.148
146601.000			-41.181			-5.148
146700.000			-41.180			-5.148
146801.000			-41.179			-5.147
146900.000			-41.180			-5.147
147000.000			-41.179			-5.147
147101.000			-41.178			-5.147
147200.000			-41.180			-5.147
147300.000			-41.178			-5.147
147402.000			-41.177			-5.147
147501.000			-41.177			-5.147
147600.000			-41.176			-5.147
147700.000			-41.176			-5.147
147800.000			-41.176			-5.147
147901.000			-41.177			-5.147
148000.000			-41.175			-5.147
148100.000			-41.173			-5.147
148201.000			-41.173			-5.147
148301.000			-41.171			-5.146
148401.000			-41.171			-5.146
148502.000			-41.171			-5.146
148600.000			-41.170			-5.146
148700.000			-41.169			-5.146
148801.000			-41.170			-5.146
148900.000			-41.170			-5.146
149000.000			-41.168			-5.146
149101.000			-41.167			-5.146
149200.000			-41.167			-5.146
149301.000			-41.166			-5.146
149402.000			-41.167			-5.146
149500.000			-41.165			-5.146
149600.000			-41.164			-5.145
149701.000			-41.163			-5.145
149800.000			-41.164			-5.145
149900.000			-41.164			-5.146
150001.000			-41.163			-5.145
150100.000			-41.162			-5.145
150201.000			-41.161			-5.145
150302.000			-41.161			-5.145
150400.000			-41.160			-5.145
150500.000			-41.160			-5.145
150601.000			-41.160			-5.145
150700.000			-41.160			-5.145
150800.000			-41.160			-5.145
150900.000			-41.158			-5.145
151000.000			-41.157			-5.145
151102.000			-41.156			-5.145
151201.000			-41.155			-5.144
151300.000			-41.155			-5.144
151401.000			-41.155			-5.144
151500.000			-41.153			-5.144
151600.000			-41.154			-5.144
151701.000			-41.152			-5.144
151800.000			-41.153			-5.144
151900.000			-41.153			-5.144
152002.000			-41.151			-5.144
152101.000			-41.151			-5.144
152200.000			-41.150			-5.144
152301.000			-41.149			-5.144
152400.000			-41.149			-5.144
152500.000			-41.149			-5.144
152601.000			-41.150			-5.144
152700.000			-41.148			-5.143
152800.000			-41.147			-5.143
152902.000			-41.147			-5.143
153001.000			-41.146			-5.143
153100.000			-41.146			-5.143
153201.000			-41.146			-5.143
153300.000			-41.145			-5.143
153400.000			-41.145			-5.143
153501.000			-41.143			-5.143
153600.000			-41.142			-5.143
153700.000			-41.143			-5.143
153802.000			-41.142			-5.143
153901.000			-41.141			-5.143
154002.000			-41.140			-5.142
154100.000			-41.139			-5.142
154200.000			-41.140			-5.142
154301.000			-41.139			-5.142
154400.000			-41.139			-5.142
154500.000			-41.138			-5.142
154601.000			-41.136			-5.142
154701.000			-41.136			-5.142
154801.000			-41.136			-5.142
154902.000			-41.135			-5.142
155000.000			-41.135			-5.142
155100.000			-41.134			-5.142
155201.000			-41.134			-5.142
155300.000			-41.134			-5.142
155400.000			-41.134			-5.142
155501.000			-41.133			-5.142
155601.000			-41.133			-5.142
155701.000			-41.132			-5.141
155802.000			-41.131			-5.141
155900.000			-41.130			-5.141
156000.000			-41.128			-5.141
156101.000			-41.130			-5.141
156200.000			-41.130			-5.141
156300.000			-41.129			-5.141
156401.000			-41.129			-5.141
156501.000			-41.129			-5.141
156601.000			-41.127			-5.141
156702.000			-41.127			-5.141
156800.000			-41.126			-5.141
156900.000			-41.123			-5.140
157001.000			-41.123			-5.140
157100.000			-41.123			-5.140
157200.000			-41.122			-5.140
157300.000			-41.122			-5.140
157401.000			-41.122			-5.140
157502.000			-41.122			-5.140
157601.000			-41.122			-5.140
157700.000			-41.121			-5.140
157801.000			-41.120			-5.140
157900.000			-41.119			-5.140
158000.000			-41.119			-5.140
158101.000			-41.119			-5.140
158200.000			-41.119			-5.140
158300.000			-41.118			-5.140
158402.000			-41.117			-5.140
158501.000			-41.117			-5.140
158600.000			-41.115			-5.139
158701.000			-41.116			-5.139
158800.000			-41.116			-5.140
158900.000			-41.114			-5.139
159001.000			-41.114			-5.139
159100.000			-41.115			-5.139
159200.000			-41.114			-5.139
159302.000			-41.113			-5.139
159401.000			-41.112			-5.139
159500.000			-41.111			-5.139
159601.000			-41.110			-5.139
159700.000			-41.109			-5.139
159800.000			-41.111			-5.139
159901.000			-41.109			-5.139
160000.000			-41.107			-5.138
160100.000			-41.107			-5.138
160202.000			-41.107			-5.138
160301.000			-41.108			-5.138
160400.000			-41.106			-5.138
160500.000			-41.106			-5.138
160600.000			-41.106			-5.138
160701.000			-41.105			-5.138
160800.000			-41.105			-5.138
160900.000			-41.104			-5.138
161001.000			-41.105			-5.138
161101.000			-41.103			-5.138
161201.000			-41.103			-5.138
161301.000			-41.102			-5.138
161400.000			-41.102			-5.138
161500.000			-41.102			-5.138
161601.000			-41.102			-5.138
161700.000			-41.100			-5.138
161800.000			-41.100			-5.138
161902.000			-41.100			-5.138
162001.000			-41.099			-5.137
162101.000			-41.097			-5.137
162201.000			-41.097			-5.137
162300.000			-41.097			-5.137
162400.000			-41.096			-5.137
162501.000			-41.095			-5.137
162600.000			-41.095			-5.137
162700.000			-41.095			-5.137
162801.000			-41.094			-5.137
162901.000			-41.094			-5.137
163001.000			-41.094			-5.137
163101.000			-41.093			-5.137
163200.000			-41.093			-5.137
163300.000			-41.092			-5.136
163401.000			-41.091			-5.136
163500.000			-41.090			-5.136
163600.000			-41.090			-5.136
163700.000			-41.089			-5.136
163801.000			-41.087			-5.136
163902.000			-41.087			-5.136
164000.000			-41.086			-5.136
164100.000			-41.088			-5.136
164201.000			-41.088			-5.136
164300.000			-41.086			-5.136
164400.000			-41.086			-5.136
164501.000			-41.086			-5.136
164600.000			-41.086			-5.136
164701.000			-41.084			-5.135
164802.000			-41.083			-5.135
164901.000			-41.084			-5.135
165000.000			-41.083			-5.135
165101.000			-41.082			-5.135
165200.000			-41.083			-5.135
165300.000			-41.082			-5.135
165401.000			-41.081			-5.135
165500.000			-41.080			-5.135
165601.000			-41.079			-5.135
165702.000			-41.079			-5.135
165801.000			-41.079			-5.135
165900.000			-41.078			-5.135
166001.000			-41.078			-5.135
166100.000			-41.077			-5.135
166200.000			-41.076			-5.134
166301.000			-41.076			-5.134
166400.000			-41.076			-5.134
166500.000			-41.075			-5.134
166602.000			-41.074			-5.134
166701.000			-41.073			-5.134
166800.000			-41.072			-5.134
166900.000			-41.073			-5.134
167000.000			-41.072			-5.134
167101.000			-41.072			-5.134
167200.000			-41.071			-5.134
167300.000			-41.071			-5.134
167401.000			-41.071			-5.134
167501.000			-41.071			-5.134
167601.000			-41.070			-5.134
167701.000			-41.069			-5.134
167800.000			-41.069			-5.134
167900.000			-41.068			-5.133
168001.000			-41.067			-5.133
168100.000			-41.068			-5.134
168200.000			-41.067			-5.133
168301.000			-41.067			-5.133
168401.000			-41.065			-5.133
168501.000			-41.065			-5.133
168602.000			-41.064			-5.133
168700.000			-41.065			-5.133
168800.000			-41.064			-5.133
168901.000			-41.063			-5.133
169000.000			-41.063			-5.133
169100.000			-41.062			-5.133
169201.000			-41.062			-5.133
169301.000			-41.061			-5.133
169401.000			-41.059			-5.132
169502.000			-41.060			-5.132
169600.000			-41.059			-5.132
169700.000			-41.058			-5.132
169801.000			-41.057			-5.132
169900.000			-41.057			-5.132
170000.000			-41.056			-5.132
170100.000			-41.057			-5.132
170200.000			-41.057			-5.132
170302.000			-41.057			-5.132
170401.000			-41.056			-5.132
170500.000			-41.054			-5.132
170601.000			-41.054			-5.132
170700.000			-41.054			-5.132
170800.000			-41.054			-5.132
170901.000			-41.054			-5.132
171000.000			-41.053			-5.132
171100.000			-41.052			-5.131
171202.000			-41.051			-5.131
171301.000			-41.051			-5.131
171400.000			-41.049			-5.131
171501.000			-41.049			-5.131
171600.000			-41.050			-5.131
171700.000			-41.049			-5.131
171801.000			-41.048			-5.131
171900.000			-41.047			-5.131
172000.000			-41.048			-5.131
172102.000			-41.047			-5.131
172201.000			-41.046			-5.131
172300.000			-41.045			-5.131
172401.000			-41.046			-5.131
172500.000			-41.046			-5.131
172600.000			-41.044			-5.131
172701.000			-41.045			-5.131
172800.000			-41.044			-5.131
172900.000			-41.044			-5.130
173002.000			-41.044			-5.131
173101.000			-41.043			-5.130
173200.000			-41.042			-5.130
173300.000			-41.042			-5.130
173400.000			-41.041			-5.130
173501.000			-41.040			-5.130
173600.000			-41.039			-5.130
173700.000			-41.039			-5.130
173801.000			-41.039			-5.130
173901.000			-41.039			-5.130
174001.000			-41.037			-5.130
174102.000			-41.037			-5.130
174200.000			-41.037			-5.130
174300.000			-41.036			-5.129
174401.000			-41.036			-5.130
174500.000			-41.036			-5.129
174600.000			-41.036			-5.129
174701.000			-41.034			-5.129
174801.000			-41.034			-5.129
174901.000			-41.034			-5.129
175002.000			-41.034			-5.129
175100.000			-41.032			-5.129
175200.000			-41.031			-5.129
175301.000			-41.033			-5.129
175400.000			-41.031			-5.129
175500.000			-41.030			-5.129
175601.000			-41.030			-5.129
175701.000			-41.030			-5.129
175801.000			-41.030			-5.129
175902.000			-41.029			-5.129
176000.000			-41.029			-5.129
176100.000			-41.028			-5.128
176201.000			-41.028			-5.129
176300.000			-41.028			-5.128
176400.000			-41.027			-5.128
176500.000			-41.026			-5.128
176600.000			-41.025			-5.128
176702.000			-41.024			-5.128
176801.000			-41.024			-5.128
176900.000			-41.025			-5.128
177001.000			-41.025			-5.128
177100.000			-41.023			-5.128
177200.000			-41.022			-5.128
177301.000			-41.022			-5.128
177400.000			-41.022			-5.128
177500.000			-41.021			-5.128
177602.000			-41.020			-5.128
177701.000			-41.020			-5.128
177800.000			-41.020			-5.128
177901.000			-41.020			-5.127
178000.000			-41.019			-5.127
178100.000			-41.019			-5.127
178201.000			-41.018			-5.127
178300.000			-41.018			-5.127
178400.000			-41.017			-5.127
178502.000			-41.015			-5.127
178601.000			-41.016			-5.127
178700.000			-41.016			-5.127
178801.000			-41.016			-5.127
178900.000			-41.015			-5.127
179000.000			-41.015			-5.127
179101.000			-41.016			-5.127
179200.000			-41.014			-5.127
179300.000			-41.014			-5.127
179402.000			-41.014			-5.127
179501.000			-41.013			-5.127
179600.000			-41.012			-5.126
179700.000			-41.012			-5.126
179800.000			-41.012			-5.126
179901.000			-41.011			-5.126
180000.000			-41.009			-5.126
180100.000			-41.009			-5.126
180201.000			-41.009			-5.126
180301.000			-41.008			-5.126
180401.000			-41.008			-5.126
180501.000			-41.007			-5.126
180600.000			-41.008			-5.126
180700.000			-41.006			-5.126
180801.000			-41.006			-5.126
180900.000			-41.007			-5.126
181000.000			-41.006			-5.126
181101.000			-41.006			-5.126
181201.000			-41.005			-5.126
181301.000			-41.004			-5.126
181401.000			-41.003			-5.125
181500.000			-41.003			-5.125
181600.000			-41.003			-5.125
181701.000			-41.002			-5.125
181800.000			-41.003			-5.125
181900.000			-41.002			-5.125
182001.000			-41.001			-5.125
182101.000			-41.000			-5.125
182201.000			-41.000			-5.125
182301.000			-41.000			-5.125
182400.000			-40.999			-5.125
182500.000			-40.999			-5.125
182601.000			-40.998			-5.125
182700.000			-40.998			-5.125
182800.000			-40.997			-5.125
182900.000			-40.998			-5.125
183000.000			-40.997			-5.125
183102.000			-40.996			-5.125
183201.000			-40.996			-5.124
183300.000			-40.994			-5.124
183401.000			-40.994			-5.124
183500.000			-40.995			-5.124
183600.000			-40.993			-5.124
183701.000			-40.992			-5.124
183800.000			-40.992			-5.124
183900.000			-40.992			-5.124
184002.000			-40.993			-5.124
184101.000			-40.992			-5.124
184201.000			-40.992			-5.124
184301.000			-40.991			-5.124
184400.000			-40.991			-5.124
184500.000			-40.989			-5.124
184601.000			-40.987			-5.123
184700.000			-40.987			-5.123
184800.000			-40.988			-5.123
184901.000			-40.988			-5.124
185001.000			-40.986			-5.123
185101.000			-40.987			-5.123
185201.000			-40.986			-5.123
185300.000			-40.985			-5.123
185400.000			-40.985			-5.123
185501.000			-40.984			-5.123
185600.000			-40.984			-5.123
185700.000			-40.984			-5.123
185801.000			-40.983			-5.123
185901.000			-40.983			-5.123
186002.000			-40.983			-5.123
186101.000			-40.982			-5.123
186200.000			-40.981			-5.123
186301.000			-40.981			-5.123
186400.000			-40.980			-5.123
186500.000			-40.980			-5.123
186601.000			-40.979			-5.122
186700.000			-40.979			-5.122
186800.000			-40.979			-5.122
186902.000			-40.979			-5.122
187001.000			-40.978			-5.122
187101.000			-40.977			-5.122
187201.000			-40.978			-5.122
187300.000			-40.977			-5.122
187400.000			-40.977			-5.122
187501.000			-40.977			-5.122
187600.000			-40.976			-5.122
187700.000			-40.975			-5.122
187801.000			-40.975			-5.122
187901.000			-40.974			-5.122
188001.000			-40.974			-5.122
188102.000			-40.973			-5.122
188200.000			-40.973			-5.122
188300.000			-40.972			-5.122
188401.000			-40.971			-5.121
188500.000			-40.971			-5.121
188600.000			-40.970			-5.121
188701.000			-40.970			-5.121
188800.000			-40.969			-5.121
188901.000			-40.969			-5.121
189002.000			-40.969			-5.121
189101.000			-40.968			-5.121
189200.000			-40.968			-5.121
189300.000			-40.967			-5.121
189400.000			-40.966			-5.121
189501.000			-40.965			-5.121
189600.000			-40.966			-5.121
189700.000			-40.966			-5.121
189801.000			-40.965			-5.121
189901.000			-40.964			-5.120
190001.000			-40.964			-5.121
190102.000			-40.964			-5.121
190200.000			-40.963			-5.120
190300.000			-40.963			-5.120
190401.000			-40.962			-5.120
190500.000			-40.961			-5.120
190600.000			-40.961			-5.120
190701.000			-40.960			-5.120
190800.000			-40.960			-5.120
190901.000			-40.960			-5.120
191002.000			-40.960			-5.120
191100.000			-40.960			-5.120
191200.000			-40.959			-5.120
191301.000			-40.958			-5.120
191400.000			-40.958			-5.120
191500.000			-40.957			-5.120
191601.000			-40.958			-5.120
191700.000			-40.957			-5.120
191801.000			-40.957			-5.120
191902.000			-40.956			-5.119
192001.000			-40.955			-5.119
192100.000			-40.955			-5.119
192201.000			-40.955			-5.119
192300.000			-40.954			-5.119
192400.000			-40.953			-5.119
192500.000			-40.953			-5.119
192600.000			-40.953			-5.119
192701.000			-40.952			-5.119
192801.000			-40.952			-5.119
192901.000			-40.952			-5.119
193001.000			-40.952			-5.119
193100.000			-40.952			-5.119
193200.000			-40.950			-5.119
193301.000			-40.949			-5.119
193400.000			-40.949			-5.119
193500.000			-40.950			-5.119
193601.000			-40.949			-5.119
193701.000			-40.946			-5.118
193801.000			-40.946			-5.118
193902.000			-40.946			-5.118
194000.000			-40.947			-5.118
194100.000			-40.947			-5.118
194201.000			-40.947			-5.118
194300.000			-40.945			-5.118
194400.000			-40.944			-5.118
194501.000			-40.945			-5.118
194600.000			-40.944			-5.118
194701.000			-40.942			-5.118
194802.000			-40.942			-5.118
194901.000			-40.942			-5.118
195000.000			-40.942			-5.118
195101.000			-40.941			-5.118
195200.000			-40.942			-5.118
195300.000			-40.942			-5.118
195401.000			-40.941			-5.118
195500.000			-40.940			-5.118
195600.000			-40.940			-5.118
195702.000			-40.940			-5.117
195801.000			-40.939			-5.117
195901.000			-40.938			-5.117
196000.000			-40.937			-5.117
196100.000			-40.937			-5.117
196201.000			-40.937			-5.117
196300.000			-40.937			-5.117
196400.000			-40.936			-5.117
196501.000			-40.935			-5.117
196601.000			-40.937			-5.117
196701.000			-40.936			-5.117
196802.000			-40.935			-5.117
196900.000			-40.934			-5.117
197000.000			-40.933			-5.117
197101.000			-40.934			-5.117
197200.000			-40.933			-5.117
197300.000			-40.933			-5.117
197401.000			-40.931			-5.116
197500.000			-40.931			-5.116
197601.000			-40.931			-5.116
197702.000			-40.931			-5.116
197801.000			-40.931			-5.116
197900.000			-40.930			-5.116
198001.000			-40.930			-5.116
198100.000			-40.929			-5.116
198200.000			-40.928			-5.116
198301.000			-40.927			-5.116
198400.000			-40.928			-5.116
198500.000			-40.926			-5.116
198602.000			-40.926			-5.116
198701.000			-40.926			-5.116
198800.000			-40.927			-5.116
198900.000			-40.926			-5.116
199000.000			-40.924			-5.116
199101.000			-40.924			-5.115
199200.000			-40.924			-5.116
199300.000			-40.924			-5.116
199401.000			-40.924			-5.115
199501.000			-40.922			-5.115
199601.000			-40.922			-5.115
199702.000			-40.922			-5.115
199800.000			-40.922			-5.115
199900.000			-40.921			-5.115
200001.000			-40.921			-5.115
200100.000			-40.920			-5.115
200200.000			-40.921			-5.115
200301.000			-40.918			-5.115
200400.000			-40.918			-5.115
200501.000			-40.918			-5.115
200602.000			-40.918			-5.115
200700.000			-40.918			-5.115
200800.000			-40.917			-5.115
200901.000			-40.917			-5.115
201000.000			-40.917			-5.115
201100.000			-40.916			-5.115
201201.000			-40.916			-5.115
201300.000			-40.915			-5.114
201401.000			-40.915			-5.114
201502.000			-40.915			-5.114
201600.000			-40.915			-5.114
201700.000			-40.914			-5.114
201801.000			-40.913			-5.114
201900.000			-40.913			-5.114
202000.000			-40.912			-5.114
202100.000			-40.912			-5.114
202200.000			-40.912			-5.114
202302.000			-40.911			-5.114
202401.000			-40.911			-5.114
202500.000			-40.911			-5.114
202601.000			-40.911			-5.114
202700.000			-40.911			-5.114
202800.000			-40.910			-5.114
202901.000			-40.908			-5.114
203000.000			-40.908			-5.113
203100.000			-40.908			-5.113
203202.000			-40.906			-5.113
203301.000			-40.906			-5.113
203400.000			-40.907			-5.113
203501.000			-40.907			-5.113
203600.000			-40.906			-5.113
203700.000			-40.905			-5.113
203801.000			-40.905			-5.113
203900.000			-40.904			-5.113
204000.000			-40.903			-5.113
204102.000			-40.904			-5.113
204201.000			-40.904			-5.113
204300.000			-40.902			-5.113
204401.000			-40.903			-5.113
204500.000			-40.903			-5.113
204600.000			-40.901			-5.113
204701.000			-40.901			-5.113
204800.000			-40.900			-5.113
204900.000			-40.901			-5.113
205002.000			-40.899			-5.112
205101.000			-40.899			-5.112
205200.000			-40.900			-5.112
205300.000			-40.898			-5.112
205400.000			-40.898			-5.112
205501.000			-40.897			-5.112
205600.000			-40.897			-5.112
205700.000			-40.897			-5.112
205801.000			-40.897			-5.112
205901.000			-40.898			-5.112
206001.000			-40.895			-5.112
206101.000			-40.895			-5.112
206200.000			-40.895			-5.112
206300.000			-40.895			-5.112
206401.000			-40.894			-5.112
206500.000			-40.895			-5.112
206600.000			-40.894			-5.112
206701.000			-40.893			-5.112
206801.000			-40.892			-5.112
206901.000			-40.892			-5.111
207002.000			-40.891			-5.111
207100.000			-40.891			-5.111
207200.000			-40.891			-5.111
207301.000			-40.890			-5.111
207400.000			-40.891			-5.111
207500.000			-40.889			-5.111
207601.000			-40.889			-5.111
207701.000			-40.889			-5.111
207801.000			-40.889			-5.111
207902.000			-40.888			-5.111
208000.000			-40.888			-5.111
208100.000			-40.887			-5.111
208201.000			-40.888			-5.111
208300.000			-40.886			-5.111
208400.000			-40.885			-5.111
208500.000			-40.885			-5.111
208600.000			-40.885			-5.111
208702.000			-40.884			-5.111
208801.000			-40.884			-5.110
208901.000			-40.884			-5.110
209001.000			-40.884			-5.110
209100.000			-40.884			-5.110
209200.000			-40.883			-5.110
209301.000			-40.882			-5.110
209400.000			-40.882			-5.110
209500.000			-40.881			-5.110
209601.000			-40.881			-5.110
209701.000			-40.881			-5.110
209801.000			-40.880			-5.110
209901.000			-40.880			-5.110
210000.000			-40.880			-5.110
210100.000			-40.880			-5.110
210201.000			-40.879			-5.110
210300.000			-40.878			-5.110
210400.000			-40.876			-5.109
210501.000			-40.876			-5.109
210601.000			-40.877			-5.110
210701.000			-40.876			-5.110
210801.000			-40.876			-5.110
210900.000			-40.876			-5.109
211000.000			-40.876			-5.109
211101.000			-40.874			-5.109
211200.000			-40.874			-5.109
211300.000			-40.875			-5.109
211401.000			-40.875			-5.109
211501.000			-40.873			-5.109
211602.000			-40.871			-5.109
211700.000			-40.872			-5.109
211800.000			-40.871			-5.109
211901.000			-40.871			-5.109
212000.000			-40.871			-5.109
212100.000			-40.871			-5.109
212201.000			-40.871			-5.109
212300.000			-40.870			-5.109
212401.000			-40.869			-5.109
212502.000			-40.870			-5.109
212601.000			-40.870			-5.109
212700.000			-40.869			-5.109
212801.000			-40.868			-5.109
212900.000			-40.869			-5.109
213000.000			-40.868			-5.109
213101.000			-40.868			-5.108
213200.000			-40.867			-5.108
213300.000			-40.866			-5.108
213402.000			-40.866			-5.108
213501.000			-40.866			-5.108
213600.000			-40.865			-5.108
213701.000			-40.864			-5.108
213800.000			-40.865			-5.108
213900.000			-40.864			-5.108
214001.000			-40.865			-5.108
214100.000			-40.864			-5.108
214200.000			-40.864			-5.108
214302.000			-40.863			-5.108
214401.000			-40.862			-5.108
214500.000			-40.861			-5.108
214601.000			-40.861			-5.108
214700.000			-40.861			-5.108
214800.000			-40.861			-5.108
214900.000			-40.861			-5.108
215000.000			-40.860			-5.108
215101.000			-40.860			-5.108
215201.000			-40.860			-5.107
215301.000			-40.859			-5.107
215401.000			-40.858			-5.107
215500.000			-40.858			-5.107
215600.000			-40.859			-5.107
215701.000			-40.858			-5.107
215800.000			-40.856			-5.107
215900.000			-40.856			-5.107
216001.000			-40.856			-5.107
216101.000			-40.855			-5.107
216201.000			-40.854			-5.107
216302.000			-40.855			-5.107
216400.000			-40.854			-5.107
216500.000			-40.853			-5.107
216601.000			-40.853			-5.107
216700.000			-40.854			-5.107
216800.000			-40.854			-5.107
216901.000			-40.852			-5.107
217000.000			-40.852			-5.106
217101.000			-40.852			-5.106
217202.000			-40.852			-5.106
217300.000			-40.851			-5.106
217400.000			-40.849			-5.106
217501.000			-40.849			-5.106
217600.000			-40.850			-5.106
217700.000			-40.849			-5.106
217801.000			-40.849			-5.106
217900.000			-40.849			-5.106
218002.000			-40.848			-5.106
218101.000			-40.847			-5.106
218201.000			-40.846			-5.106
218301.000			-40.846			-5.106
218400.000			-40.846			-5.106
218500.000			-40.846			-5.106
218601.000			-40.846			-5.106
218700.000			-40.846			-5.106
218800.000			-40.845			-5.106
218902.000			-40.843			-5.105
219001.000			-40.843			-5.105
219101.000			-40.844			-5.106
219201.000			-40.844			-5.106
219300.000			-40.843			-5.105
219400.000			-40.842			-5.105
219501.000			-40.842			-5.105
219600.000			-40.842			-5.105
219700.000			-40.841			-5.105
219801.000			-40.841			-5.105
219901.000			-40.839			-5.105
220001.000			-40.840			-5.105
220101.000			-40.840			-5.105
220200.000			-40.840			-5.105
220300.000			-40.838			-5.105
220401.000			-40.839			-5.105
220500.000			-40.838			-5.105
220600.000			-40.838			-5.105
220701.000			-40.838			-5.105
220801.000			-40.837			-5.105
220901.000			-40.836			-5.105
221001.000			-40.835			-5.104
221100.000			-40.835			-5.104
221200.000			-40.834			-5.104
221300.000			-40.834			-5.104
221400.000			-40.835			-5.104
221501.000			-40.834			-5.104
221600.000			-40.833			-5.104
221701.000			-40.834			-5.104
221802.000			-40.834			-5.104
221901.000			-40.834			-5.104
222000.000			-40.832			-5.104
222101.000			-40.832			-5.104
222200.000			-40.832			-5.104
222300.000			-40.831			-5.104
222401.000			-40.830			-5.104
222500.000			-40.830			-5.104
222601.000			-40.829			-5.104
222702.000			-40.830			-5.104
222801.000			-40.830			-5.104
222900.000			-40.829			-5.104
223001.000			-40.830			-5.104
223100.000			-40.829			-5.104
223200.000			-40.828			-5.103
223301.000			-40.827			-5.103
223400.000			-40.826			-5.103
223501.000			-40.826			-5.103
223602.000			-40.826			-5.103
223701.000			-40.825			-5.103
223800.000			-40.826			-5.103
223901.000			-40.824			-5.103
224000.000			-40.825			-5.103
224100.000			-40.825			-5.103
224201.000			-40.824			-5.103
224300.000			-40.824			-5.103
224400.000			-40.823			-5.103
224502.000			-40.822			-5.103
224601.000			-40.822			-5.103
224701.000			-40.822			-5.103
224800.000			-40.822			-5.103
224900.000			-40.821			-5.103
225001.000			-40.820			-5.102
225100.000			-40.819			-5.102
225200.000			-40.820			-5.102
225301.000			-40.819			-5.102
225401.000			-40.819			-5.102
225501.000			-40.819			-5.102
225601.000			-40.818			-5.102
225700.000			-40.818			-5.102
225800.000			-40.818			-5.102
225901.000			-40.816			-5.102
226000.000			-40.816			-5.102
226100.000			-40.817			-5.102
226201.000			-40.815			-5.102
226301.000			-40.816			-5.102
226401.000			-40.816			-5.102
226502.000			-40.815			-5.102
226600.000			-40.814			-5.102
226700.000			-40.814			-5.102
226801.000			-40.813			-5.102
226900.000			-40.814			-5.102
227000.000			-40.813			-5.102
227101.000			-40.813			-5.102
227201.000			-40.812			-5.102
227301.000			-40.811			-5.101
227402.000			-40.811			-5.101
227500.000			-40.812			-5.101
227600.000			-40.812			-5.101
227700.000			-40.811			-5.101
227800.000			-40.811			-5.101
227901.000			-40.810			-5.101
228000.000			-40.809			-5.101
228100.000			-40.808			-5.101
228202.000			-40.808			-5.101
228301.000			-40.807			-5.101
228400.000			-40.807			-5.101
228501.000			-40.809			-5.101
228600.000			-40.808			-5.101
228700.000			-40.807			-5.101
228801.000			-40.806			-5.101
228900.000			-40.805			-5.101
229000.000			-40.806			-5.101
229102.000			-40.805			-5.101
229201.000			-40.805			-5.101
229300.000			-40.804			-5.100
229401.000			-40.804			-5.100
229500.000			-40.804			-5.100
229600.000			-40.803			-5.100
229701.000			-40.803			-5.100
229800.000			-40.803			-5.100
229900.000			-40.802			-5.100
230002.000			-40.800			-5.100
230101.000			-40.800			-5.100
230200.000			-40.801			-5.100
230301.000			-40.800			-5.100
230400.000			-40.800			-5.100
230500.000			-40.799			-5.100
230601.000			-40.798			-5.100
230700.000			-40.797			-5.100
230800.000			-40.797			-5.100
230902.000			-40.797			-5.100
231001.000			-40.797			-5.100
231101.000			-40.797			-5.100
231200.000			-40.797			-5.100
231300.000			-40.796			-5.100
231401.000			-40.794			-5.099
231500.000			-40.794			-5.099
231600.000			-40.795			-5.099
231701.000			-40.795			-5.099
231801.000			-40.794			-5.099
231901.000			-40.794			-5.099
232002.000			-40.795			-5.099
232100.000			-40.793			-5.099
232200.000			-40.793			-5.099
232301.000			-40.793			-5.099
232400.000			-40.792			-5.099
232500.000			-40.792			-5.099
232601.000			-40.791			-5.099
232701.000			-40.791			-5.099
232801.000			-40.791			-5.099
232902.000			-40.791			-5.099
233000.000			-40.792			-5.099
233100.000			-40.790			-5.099
233201.000			-40.790			-5.099
233300.000			-40.788			-5.099
233400.000			-40.789			-5.099
233501.000			-40.789			-5.099
233600.000			-40.788			-5.099
233701.000			-40.788			-5.098
233802.000			-40.787			-5.098
233901.000			-40.787			-5.098
234000.000			-40.787			-5.098
234100.000			-40.787			-5.098
234200.000			-40.786			-5.098
234301.000			-40.786			-5.098
234400.000			-40.787			-5.098
234500.000			-40.786			-5.098
234601.000			-40.785			-5.098
234701.000			-40.784			-5.098
234801.000			-40.784			-5.098
234901.000			-40.783			-5.098
235000.000			-40.783			-5.098
235100.000			-40.782			-5.098
235201.000			-40.782			-5.098
235300.000			-40.782			-5.098
235400.000			-40.781			-5.098
235501.000			-40.780			-5.098
235601.000			-40.781			-5.098
235701.000			-40.781			-5.098
235802.000			-40.780			-5.098
235900.000			-40.780			-5.097
236000.000			-40.780			-5.098
236101.000			-40.780			-5.098
236200.000			-40.781			-5.098
236300.000			-40.780			-5.098
236401.000			-40.779			-5.097
236501.000			-40.777			-5.097
236601.000			-40.776			-5.097
236702.000			-40.777			-5.097
236800.000			-40.778			-5.097
236900.000			-40.777			-5.097
237001.000			-40.778			-5.097
237100.000			-40.777			-5.097
237200.000			-40.776			-5.097
237300.000			-40.776			-5.097
237400.000			-40.775			-5.097
237502.000			-40.775			-5.097
237601.000			-40.775			-5.097
237701.000			-40.775			-5.097
237801.000			-40.774			-5.097
237900.000			-40.773			-5.097
238000.000			-40.772			-5.097
238101.000			-40.772			-5.097
238200.000			-40.772			-5.097
238300.000			-40.772			-5.096
238401.000			-40.771			-5.096
238501.000			-40.771			-5.096
238601.000			-40.772			-5.096
238701.000			-40.769			-5.096
238800.000			-40.769			-5.096
238900.000			-40.770			-5.096
239001.000			-40.769			-5.096
239100.000			-40.768			-5.096
239200.000			-40.768			-5.096
239301.000			-40.768			-5.096
239401.000			-40.768			-5.096
239501.000			-40.766			-5.096
239602.000			-40.767			-5.096
239700.000			-40.767			-5.096
239800.000			-40.767			-5.096
239901.000			-40.767			-5.096
240000.000			-40.765			-5.096
240100.000			-40.765			-5.096
240201.000			-40.764			-5.096
240300.000			-40.764			-5.095
240402.000			-40.763			-5.095
240501.000			-40.764			-5.096
240600.000			-40.764			-5.095
240701.000			-40.764			-5.095
240800.000			-40.762			-5.095
240900.000			-40.761			-5.095
241001.000			-40.762			-5.095
241100.000			-40.762			-5.095
241200.000			-40.761			-5.095
241302.000			-40.760			-5.095
241401.000			-40.760			-5.095
241501.000			-40.760			-5.095
241601.000			-40.760			-5.095
241700.000			-40.760			-5.095
241800.000			-40.759			-5.095
241901.000			-40.759			-5.095
242000.000			-40.758			-5.095
242100.000			-40.758			-5.095
242202.000			-40.758			-5.095
242301.000			-40.757			-5.095
242401.000			-40.757			-5.095
242501.000			-40.756			-5.095
242600.000			-40.756			-5.095
242700.000			-40.756			-5.094
242801.000			-40.756			-5.094
242900.000			-40.756			-5.094
243000.000			-40.756			-5.094
243101.000			-40.755			-5.094
243201.000			-40.753			-5.094
243301.000			-40.755			-5.094
243401.000			-40.754			-5.094
243500.000			-40.754			-5.094
243600.000			-40.753			-5.094
243700.000			-40.753			-5.094
243800.000			-40.753			-5.094
243901.000			-40.751			-5.094
244000.000			-40.751			-5.094
244101.000			-40.751			-5.094
244202.000			-40.750			-5.094
244301.000			-40.750			-5.094
244400.000			-40.750			-5.094
244501.000			-40.750			-5.094
244600.000			-40.749			-5.094
244700.000			-40.749			-5.094
244801.000			-40.749			-5.094
244900.000			-40.749			-5.094
245001.000			-40.747			-5.093
245102.000			-40.747			-5.093
245201.000			-40.746			-5.093
245300.000			-40.746			-5.093
245401.000			-40.746			-5.093
245500.000			-40.747			-5.093
245600.000			-40.747			-5.093
245701.000			-40.747			-5.093
245800.000			-40.747			-5.093
245900.000			-40.745			-5.093
246002.000			-40.744			-5.093
246101.000			-40.744			-5.093
246200.000			-40.744			-5.093
246301.000			-40.744			-5.093
246400.000			-40.743			-5.093
246500.000			-40.742			-5.093
246601.000			-40.743			-5.093
246700.000			-40.742			-5.093
246800.000			-40.742			-5.093
246902.000			-40.742			-5.093
247001.000			-40.741			-5.093
247102.000			-40.741			-5.093
247200.000			-40.741			-5.093
247300.000			-40.741			-5.093
247401.000			-40.740			-5.093
247500.000			-40.738			-5.092
247600.000			-40.739			-5.092
247701.000			-40.740			-5.092
247801.000			-40.740			-5.092
247901.000			-40.738			-5.092
248002.000			-40.737			-5.092
248100.000			-40.736			-5.092
248200.000			-40.735			-5.092
248301.000			-40.736			-5.092
248400.000			-40.735			-5.092
248500.000			-40.735			-5.092
248601.000			-40.735			-5.092
248700.000			-40.736			-5.092
248801.000			-40.734			-5.092
248902.000			-40.733			-5.092
249001.000			-40.733			-5.092
249100.000			-40.734			-5.092
249201.000			-40.734			-5.092
249300.000			-40.733			-5.092
249400.000			-40.733			-5.092
249501.000			-40.732			-5.092
249600.000			-40.731			-5.091
249700.000			-40.731			-5.091
249802.000			-40.732			-5.092
249901.000			-40.732			-5.091
250000.000			-40.730			-5.091
250100.000			-40.730			-5.091
250200.000			-40.730			-5.091
250301.000			-40.730			-5.091
250400.000			-40.730			-5.091
250500.000			-40.729			-5.091
250601.000			-40.728			-5.091
250701.000			-40.728			-5.091
250801.000			-40.729			-5.091
250901.000			-40.728			-5.091
251000.000			-40.726			-5.091
251100.000			-40.727			-5.091
251201.000			-40.727			-5.091
251300.000			-40.726			-5.091
251400.000			-40.726			-5.091
251501.000			-40.727			-5.091
251601.000			-40.726			-5.091
251701.000			-40.725			-5.091
251801.000			-40.725			-5.091
251900.000			-40.725			-5.091
252000.000			-40.724			-5.090
252101.000			-40.723			-5.090
252200.000			-40.723			-5.090
252300.000			-40.723			-5.090
252401.000			-40.721			-5.090
252501.000			-40.721			-5.090
252601.000			-40.721			-5.090
252701.000			-40.721			-5.090
252800.000			-40.721			-5.090
252900.000			-40.721			-5.090
253001.000			-40.720			-5.090
253100.000			-40.719			-5.090
253200.000			-40.719			-5.090
253300.000			-40.719			-5.090
253401.000			-40.718			-5.090
253502.000			-40.719			-5.090
253601.000			-40.719			-5.090
253700.000			-40.718			-5.090
253801.000			-40.718			-5.090
253900.000			-40.717			-5.090
254000.000			-40.717			-5.090
254101.000			-40.716			-5.089
254200.000			-40.715			-5.089
254300.000			-40.716			-5.089
254402.000			-40.715			-5.089
254501.000			-40.713			-5.089
254600.000			-40.714			-5.089
254701.000			-40.713			-5.089
254800.000			-40.714			-5.089
254900.000			-40.714			-5.089
255001.000			-40.713			-5.089
255100.000			-40.713			-5.089
255200.000			-40.713			-5.089
255302.000			-40.714			-5.089
255401.000			-40.712			-5.089
255500.000			-40.712			-5.089
255601.000			-40.711			-5.089
255700.000			-40.710			-5.089
255800.000			-40.710			-5.089
255901.000			-40.709			-5.089
256000.000			-40.710			-5.089
256100.000			-40.710			-5.089
256202.000			-40.708			-5.088
256301.000			-40.708			-5.088
256400.000			-40.708			-5.088
256500.000			-40.708			-5.089
256600.000			-40.708			-5.088
256701.000			-40.707			-5.088
256800.000			-40.707			-5.088
256900.000			-40.706			-5.088
257001.000			-40.707			-5.088
257101.000			-40.707			-5.088
257201.000			-40.706			-5.088
257302.000			-40.705			-5.088
257400.000			-40.705			-5.088
257500.000			-40.703			-5.088
257601.000			-40.703			-5.088
257700.000			-40.703			-5.088
257800.000			-40.703			-5.088
257901.000			-40.702			-5.088
258001.000			-40.702			-5.088
258101.000			-40.702			-5.088
258202.000			-40.701			-5.088
258300.000			-40.700			-5.088
258400.000			-40.701			-5.088
258501.000			-40.700			-5.088
258600.000			-40.700			-5.087
258700.000			-40.701			-5.088
258801.000			-40.701			-5.088
258900.000			-40.699			-5.087
259001.000			-40.698			-5.087
259102.000			-40.698			-5.087
259200.000			-40.698			-5.087
259300.000			-40.697			-5.087
259401.000			-40.697			-5.087
259500.000			-40.697			-5.087
259600.000			-40.698			-5.087
259700.000			-40.696			-5.087
259800.000			-40.697			-5.087
259901.000			-40.696			-5.087
260001.000			-40.695			-5.087
260101.000			-40.695			-5.087
260201.000			-40.695			-5.087
260300.000			-40.696			-5.087
260400.000			-40.695			-5.087
260501.000			-40.694			-5.087
260600.000			-40.694			-5.087
260700.000			-40.693			-5.087
260801.000			-40.693			-5.087
260901.000			-40.693			-5.087
261001.000			-40.693			-5.087
261101.000			-40.691			-5.086
261200.000			-40.690			-5.086
261300.000			-40.690			-5.086
261401.000			-40.690			-5.086
261500.000			-40.690			-5.086
261600.000			-40.691			-5.086
261701.000			-40.689			-5.086
261801.000			-40.690			-5.086
261901.000			-40.689			-5.086
262002.000			-40.689			-5.086
262100.000			-40.689			-5.086
262200.000			-40.689			-5.086
262301.000			-40.689			-5.086
262400.000			-40.688			-5.086
262500.000			-40.687			-5.086
262601.000			-40.687			-5.086
262700.000			-40.687			-5.086
262802.000			-40.686			-5.086
262901.000			-40.686			-5.086
263000.000			-40.687			-5.086
263101.000			-40.687			-5.086
263200.000			-40.685			-5.086
263300.000			-40.684			-5.085
263401.000			-40.683			-5.085
263500.000			-40.683			-5.085
263600.000			-40.683			-5.085
263702.000			-40.683			-5.085
263801.000			-40.682			-5.085
263900.000			-40.682			-5.085
264001.000			-40.682			-5.085
264100.000			-40.682			-5.085
264200.000			-40.682			-5.085
264301.000			-40.682			-5.085
264400.000			-40.681			-5.085
264500.000			-40.680			-5.085
264602.000			-40.680			-5.085
264701.000			-40.680			-5.085
264801.000			-40.680			-5.085
264901.000			-40.680			-5.085
265000.000			-40.679			-5.085
265100.000			-40.679			-5.085
265201.000			-40.679			-5.085
265300.000			-40.678			-5.085
265400.000			-40.677			-5.085
265501.000			-40.677			-5.085
265601.000			-40.677			-5.085
265701.000			-40.676			-5.085
265801.000			-40.677			-5.085
265900.000			-40.677			-5.085
266000.000			-40.677			-5.085
266100.000			-40.676			-5.085
266200.000			-40.675			-5.084
266301.000			-40.675			-5.084
266400.000			-40.674			-5.084
266501.000			-40.674			-5.084
266602.000			-40.674			-5.084
266701.000			-40.673			-5.084
266800.000			-40.674			-5.084
266901.000			-40.673			-5.084
267000.000			-40.673			-5.084
267100.000			-40.672			-5.084
267201.000			-40.672			-5.084
267300.000			-40.672			-5.084
267400.000			-40.671			-5.084
267502.000			-40.671			-5.084
267601.000			-40.670			-5.084
267700.000			-40.671			-5.084
267801.000			-40.671			-5.084
267900.000			-40.670			-5.084
268000.000			-40.670			-5.084
268101.000			-40.670			-5.084
268200.000			-40.670			-5.084
268300.000			-40.668			-5.084
268402.000			-40.668			-5.084
268501.000			-40.668			-5.083
268601.000			-40.668			-5.084
268701.000			-40.668			-5.083
268800.000			-40.667			-5.083
268900.000			-40.667			-5.083
269001.000			-40.666			-5.083
269100.000			-40.667			-5.083
269200.000			-40.666			-5.083
269300.000			-40.666			-5.083
269401.000			-40.666			-5.083
269502.000			-40.666			-5.083
269600.000			-40.666			-5.083
269700.000			-40.665			-5.083
269801.000			-40.664			-5.083
269900.000			-40.664			-5.083
270000.000			-40.664			-5.083
270101.000			-40.663			-5.083
270200.000			-40.663			-5.083
270301.000			-40.662			-5.083
270402.000			-40.661			-5.083
270501.000			-40.661			-5.083
270600.000			-40.661			-5.083
270701.000			-40.661			-5.083
270800.000			-40.660			-5.083
270900.000			-40.661			-5.083
271001.000			-40.661			-5.083
271100.000			-40.660			-5.082
271201.000			-40.659			-5.082
271302.000			-40.659			-5.082
271401.000			-40.660			-5.082
271500.000			-40.659			-5.082
271601.000			-40.658			-5.082
271700.000			-40.657			-5.082
271800.000			-40.657			-5.082
271901.000			-40.657			-5.082
272000.000			-40.657			-5.082
272100.000			-40.656			-5.082
272202.000			-40.656			-5.082
272301.000			-40.655			-5.082
272400.000			-40.655			-5.082
272500.000			-40.656			-5.082
272600.000			-40.655			-5.082
272701.000			-40.654			-5.082
272800.000			-40.654			-5.082
272900.000			-40.653			-5.082
273001.000			-40.653			-5.082
273101.000			-40.653			-5.082
273201.000			-40.653			-5.082
273301.000			-40.653			-5.082
273400.000			-40.652			-5.081
273500.000			-40.652			-5.081
273601.000			-40.652			-5.081
273700.000			-40.651			-5.081
273800.000			-40.651			-5.081
273901.000			-40.652			-5.081
274001.000			-40.651			-5.081
274101.000			-40.649			-5.081
274201.000			-40.648			-5.081
274300.000			-40.649			-5.081
274400.000			-40.649			-5.081
274501.000			-40.649			-5.081
274600.000			-40.648			-5.081
274700.000			-40.647			-5.081
274801.000			-40.648			-5.081
274901.000			-40.647			-5.081
275001.000			-40.648			-5.081
275102.000			-40.647			-5.081
275200.000			-40.646			-5.081
275300.000			-40.646			-5.081
275401.000			-40.645			-5.081
275500.000			-40.646			-5.081
275600.000			-40.645			-5.081
275700.000			-40.645			-5.081
275800.000			-40.645			-5.081
275902.000			-40.644			-5.081
276001.000			-40.645			-5.081
276100.000			-40.644			-5.081
276201.000			-40.643			-5.080
276300.000			-40.643			-5.080
276400.000			-40.643			-5.080
276501.000			-40.643			-5.080
276600.000			-40.641			-5.080
276700.000			-40.642			-5.080
276802.000			-40.642			-5.080
276901.000			-40.641			-5.080
277000.000			-40.640			-5.080
277101.000			-40.641			-5.080
277200.000			-40.641			-5.080
277300.000			-40.640			-5.080
277401.000			-40.639			-5.080
277500.000			-40.638			-5.080
277600.000			-40.639			-5.080
277702.000			-40.638			-5.080
277801.000			-40.638			-5.080
277901.000			-40.636			-5.080
278001.000			-40.637			-5.080
278100.000			-40.638			-5.080
278200.000			-40.637			-5.080
278301.000			-40.637			-5.080
278400.000			-40.635			-5.079
278500.000			-40.636			-5.079
278601.000			-40.635			-5.079
278701.000			-40.635			-5.079
278802.000			-40.635			-5.079
278900.000			-40.634			-5.079
279000.000			-40.633			-5.079
279101.000			-40.634			-5.079
279200.000			-40.633			-5.079
279300.000			-40.633			-5.079
279401.000			-40.632			-5.079
279500.000			-40.632			-5.079
279601.000			-40.632			-5.079
279702.000			-40.633			-5.079
279800.000			-40.633			-5.079
279900.000			-40.633			-5.079
280001.000			-40.631			-5.079
280100.000			-40.630			-5.079
280200.000			-40.630			-5.079
280301.000			-40.631			-5.079
280400.000			-40.631			-5.079
280501.000			-40.630			-5.079
280602.000			-40.628			-5.078
280701.000			-40.628			-5.079
280800.000			-40.629			-5.079
280901.000			-40.628			-5.079
281000.000			-40.628			-5.079
281100.000			-40.629			-5.079
281201.000			-40.628			-5.078
281300.000			-40.627			-5.078
281401.000			-40.626			-5.078
281502.000			-40.625			-5.078
281601.000			-40.625			-5.078
281700.000			-40.625			-5.078
281801.000			-40.625			-5.078
281900.000			-40.626			-5.078
282000.000			-40.626			-5.078
282100.000			-40.625			-5.078
282200.000			-40.623			-5.078
282301.000			-40.623			-5.078
282401.000			-40.624			-5.078
282501.000			-40.624			-5.078
282601.000			-40.623			-5.078
282700.000			-40.623			-5.078
282800.000			-40.622			-5.078
282901.000			-40.622			-5.078
283000.000			-40.622			-5.078
283100.000			-40.621			-5.078
283201.000			-40.621			-5.078
283301.000			-40.621			-5.078
283401.000			-40.621			-5.078
283501.000			-40.620			-5.078
283600.000			-40.619			-5.077
283700.000			-40.619			-5.077
283801.000			-40.619			-5.077
283900.000			-40.619			-5.077
284000.000			-40.619			-5.077
284101.000			-40.618			-5.077
284201.000			-40.618			-5.077
284301.000			-40.617			-5.077
284401.000			-40.618			-5.077
284500.000			-40.618			-5.077
284600.000			-40.617			-5.077
284701.000			-40.615			-5.077
284800.000			-40.616			-5.077
284900.000			-40.616			-5.077
285001.000			-40.615			-5.077
285101.000			-40.614			-5.077
285202.000			-40.615			-5.077
285300.000			-40.615			-5.077
285400.000			-40.614			-5.077
285501.000			-40.614			-5.077
285600.000			-40.613			-5.077
285700.000			-40.612			-5.076
285801.000			-40.611			-5.076
285900.000			-40.612			-5.076
286001.000			-40.612			-5.076
286102.000			-40.612			-5.077
286201.000			-40.612			-5.076
286300.000			-40.611			-5.076
286401.000			-40.611			-5.076
286500.000			-40.610			-5.076
286600.000			-40.610			-5.076
286701.000			-40.610			-5.076
286800.000			-40.609			-5.076
286900.000			-40.609			-5.076
287002.000			-40.608			-5.076
287101.000			-40.609			-5.076
287200.000			-40.609			-5.076
287301.000			-40.608			-5.076
287400.000			-40.608			-5.076
287500.000			-40.607			-5.076
287601.000			-40.607			-5.076
287700.000			-40.607			-5.076
287800.000			-40.606			-5.076
287902.000			-40.606			-5.076
288001.000			-40.606			-5.076
288100.000			-40.605			-5.076
288201.000			-40.604			-5.075
288300.000			-40.604			-5.076
288400.000			-40.605			-5.076
288500.000			-40.605			-5.076
288600.000			-40.603			-5.075
288701.000			-40.604			-5.075
288801.000			-40.602			-5.075
288901.000			-40.602			-5.075
289002.000			-40.602			-5.075
289100.000			-40.602			-5.075
289200.000			-40.602			-5.075
289301.000			-40.601			-5.075
289400.000			-40.601			-5.075
289500.000			-40.602			-5.075
289601.000			-40.602			-5.075
289700.000			-40.601			-5.075
289801.000			-40.601			-5.075
289902.000			-40.601			-5.075
290000.000			-40.601			-5.075
290100.000			-40.599			-5.075
290201.000			-40.599			-5.075
290300.000			-40.599			-5.075
290400.000			-40.599			-5.075
290501.000			-40.599			-5.075
290600.000			-40.597			-5.075
290701.000			-40.597			-5.075
290802.000			-40.597			-5.075
290900.000			-40.596			-5.075
291000.000			-40.596			-5.074
291101.000			-40.596			-5.074
291200.000			-40.596			-5.074
291300.000			-40.596			-5.075
291401.000			-40.596			-5.075
291500.000			-40.595			-5.074
291600.000			-40.594			-5.074
291702.000			-40.594			-5.074
291801.000			-40.595			-5.074
291901.000			-40.595			-5.074
292000.000			-40.594			-5.074
292100.000			-40.594			-5.074
292201.000			-40.594			-5.074
292300.000			-40.592			-5.074
292400.000			-40.592			-5.074
292501.000			-40.592			-5.074
292601.000			-40.592			-5.074
292701.000			-40.592			-5.074
292802.000			-40.592			-5.074
292900.000			-40.591			-5.074
293000.000			-40.591			-5.074
293101.000			-40.590			-5.074
293200.000			-40.591			-5.074
293300.000			-40.591			-5.074
293401.000			-40.589			-5.074
293500.000			-40.589			-5.074
293601.000			-40.589			-5.074
293702.000			-40.589			-5.074
293800.000			-40.589			-5.074
293900.000			-40.588			-5.074
294001.000			-40.588			-5.074
294100.000			-40.589			-5.074
294200.000			-40.588			-5.074
294301.000			-40.586			-5.073
294400.000			-40.586			-5.073
294501.000			-40.586			-5.073
294602.000			-40.585			-5.073
294701.000			-40.586			-5.073
294800.000			-40.586			-5.073
294900.000			-40.585			-5.073
295000.000			-40.585			-5.073
295101.000			-40.585			-5.073
295200.000			-40.585			-5.073
295300.000			-40.584			-5.073
295401.000			-40.583			-5.073
295501.000			-40.582			-5.073
295601.000			-40.582			-5.073
295701.000			-40.583			-5.073
295800.000			-40.582			-5.073
295900.000			-40.581			-5.073
296001.000			-40.581			-5.073
296100.000			-40.581			-5.073
296200.000			-40.581			-5.073
296301.000			-40.580			-5.073
296401.000			-40.580			-5.073
296501.000			-40.580			-5.073
296602.000			-40.579			-5.072
296700.000			-40.579			-5.072
296800.000			-40.579			-5.072
296901.000			-40.579			-5.072
297000.000			-40.580			-5.072
297100.000			-40.579			-5.072
297201.000			-40.578			-5.072
297300.000			-40.579			-5.072
297401.000			-40.579			-5.072
297502.000			-40.578			-5.072
297601.000			-40.576			-5.072
297700.000			-40.576			-5.072
297801.000			-40.576			-5.072
297900.000			-40.575			-5.072
298000.000			-40.575			-5.072
298100.000			-40.575			-5.072
298200.000			-40.574			-5.072
298301.000			-40.574			-5.072
298401.000			-40.574			-5.072
298501.000			-40.574			-5.072
298601.000			-40.574			-5.072
298700.000			-40.573			-5.072
298800.000			-40.573			-5.072
298901.000			-40.573			-5.072
299000.000			-40.572			-5.072
299100.000			-40.573			-5.072
299201.000			-40.573			-5.072
299300.000			-40.573			-5.072
299401.000			-40.572			-5.072
299502.000			-40.571			-5.071
299600.000			-40.570			-5.071
299700.000			-40.571			-5.071
299801.000			-40.570			-5.071
299900.000			-40.570			-5.071
