# Acquired on 10/01/2024 17:25:06 
# SPIDER: Creep_-9mm_07714532B-2
# CREEP MEASUREMENT

# time [ms]		force [N]		stiffness [N/mm]
0.000			35.495			-3.944
100.000			37.060			-4.118
202.000			37.685			-4.187
301.000			37.518			-4.169
400.000			37.360			-4.151
501.000			37.230			-4.137
600.000			37.117			-4.124
700.000			37.021			-4.113
801.000			36.935			-4.104
901.000			36.857			-4.095
1001.000			36.787			-4.087
1101.000			36.663			-4.074
1200.000			36.608			-4.068
1300.000			36.557			-4.062
1401.000			36.509			-4.057
1500.000			36.463			-4.051
1600.000			36.421			-4.047
1702.000			36.380			-4.042
1801.000			36.305			-4.034
1900.000			36.271			-4.030
2000.000			36.238			-4.026
2100.000			36.206			-4.023
2201.000			36.175			-4.019
2300.000			36.146			-4.016
2401.000			36.117			-4.013
2502.000			36.063			-4.007
2600.000			36.037			-4.004
2700.000			36.012			-4.001
2801.000			35.989			-3.999
2900.000			35.966			-3.996
3000.000			35.945			-3.994
3101.000			35.923			-3.991
3201.000			35.881			-3.987
3301.000			35.861			-3.985
3401.000			35.841			-3.982
3500.000			35.822			-3.980
3600.000			35.804			-3.978
3701.000			35.786			-3.976
3800.000			35.768			-3.974
3900.000			35.752			-3.972
4002.000			35.720			-3.969
4101.000			35.704			-3.967
4200.000			35.687			-3.965
4301.000			35.672			-3.964
4400.000			35.657			-3.962
4500.000			35.643			-3.960
4601.000			35.629			-3.959
4701.000			35.600			-3.956
4801.000			35.586			-3.954
4901.000			35.573			-3.953
5000.000			35.561			-3.951
5100.000			35.549			-3.950
5200.000			35.536			-3.948
5300.000			35.523			-3.947
5401.000			35.499			-3.944
5501.000			35.488			-3.943
5601.000			35.476			-3.942
5701.000			35.464			-3.940
5800.000			35.453			-3.939
5900.000			35.443			-3.938
6001.000			35.432			-3.937
6100.000			35.421			-3.936
6200.000			35.400			-3.933
6302.000			35.390			-3.932
6401.000			35.380			-3.931
6500.000			35.371			-3.930
6601.000			35.362			-3.929
6700.000			35.351			-3.928
6800.000			35.341			-3.927
6901.000			35.324			-3.925
7001.000			35.315			-3.924
7101.000			35.305			-3.923
7201.000			35.296			-3.922
7300.000			35.287			-3.921
7400.000			35.279			-3.920
7501.000			35.271			-3.919
7600.000			35.253			-3.917
7700.000			35.244			-3.916
7802.000			35.236			-3.915
7901.000			35.228			-3.914
8000.000			35.220			-3.913
8101.000			35.212			-3.912
8200.000			35.205			-3.912
8300.000			35.189			-3.910
8400.000			35.182			-3.909
8500.000			35.175			-3.908
8602.000			35.167			-3.907
8701.000			35.159			-3.907
8800.000			35.152			-3.906
8901.000			35.145			-3.905
9000.000			35.138			-3.904
9100.000			35.124			-3.903
9201.000			35.117			-3.902
9300.000			35.109			-3.901
9401.000			35.104			-3.900
9502.000			35.096			-3.900
9600.000			35.089			-3.899
9700.000			35.084			-3.898
9801.000			35.071			-3.897
9900.000			35.063			-3.896
10000.000			35.056			-3.895
10102.000			35.051			-3.895
10201.000			35.045			-3.894
10300.000			35.038			-3.893
10401.000			35.032			-3.892
10500.000			35.020			-3.891
10600.000			35.015			-3.891
10701.000			35.009			-3.890
10800.000			35.002			-3.889
10901.000			34.996			-3.888
11002.000			34.991			-3.888
11100.000			34.985			-3.887
11200.000			34.974			-3.886
11301.000			34.968			-3.885
11400.000			34.962			-3.885
11500.000			34.956			-3.884
11600.000			34.952			-3.884
11701.000			34.947			-3.883
11802.000			34.941			-3.882
11900.000			34.936			-3.882
12000.000			34.925			-3.881
12101.000			34.920			-3.880
12200.000			34.914			-3.879
12300.000			34.909			-3.879
12401.000			34.905			-3.878
12501.000			34.900			-3.878
12601.000			34.894			-3.877
12701.000			34.884			-3.876
12800.000			34.879			-3.875
12900.000			34.875			-3.875
13001.000			34.870			-3.874
13100.000			34.866			-3.874
13200.000			34.860			-3.873
13302.000			34.855			-3.873
13401.000			34.845			-3.872
13500.000			34.840			-3.871
13601.000			34.836			-3.871
13700.000			34.831			-3.870
13800.000			34.827			-3.870
13901.000			34.823			-3.869
14000.000			34.819			-3.869
14101.000			34.810			-3.868
14202.000			34.805			-3.867
14300.000			34.801			-3.867
14400.000			34.797			-3.866
14501.000			34.791			-3.866
14600.000			34.786			-3.865
14700.000			34.783			-3.865
14800.000			34.779			-3.864
14901.000			34.770			-3.863
15002.000			34.766			-3.863
15100.000			34.762			-3.862
15200.000			34.758			-3.862
15301.000			34.753			-3.861
15400.000			34.748			-3.861
15500.000			34.744			-3.860
15601.000			34.737			-3.860
15701.000			34.734			-3.859
15801.000			34.730			-3.859
15902.000			34.726			-3.858
16000.000			34.721			-3.858
16100.000			34.717			-3.857
16201.000			34.713			-3.857
16300.000			34.705			-3.856
16400.000			34.701			-3.856
16502.000			34.697			-3.855
16601.000			34.693			-3.855
16700.000			34.688			-3.854
16801.000			34.685			-3.854
16900.000			34.682			-3.854
17000.000			34.678			-3.853
17101.000			34.671			-3.852
17200.000			34.666			-3.852
17300.000			34.664			-3.852
17402.000			34.660			-3.851
17501.000			34.657			-3.851
17600.000			34.652			-3.850
17701.000			34.649			-3.850
17800.000			34.643			-3.849
17900.000			34.640			-3.849
18000.000			34.635			-3.848
18100.000			34.632			-3.848
18202.000			34.629			-3.848
18301.000			34.625			-3.847
18400.000			34.621			-3.847
18501.000			34.614			-3.846
18600.000			34.611			-3.846
18700.000			34.608			-3.845
18801.000			34.605			-3.845
18900.000			34.602			-3.845
19001.000			34.599			-3.844
19102.000			34.596			-3.844
19200.000			34.592			-3.844
19300.000			34.585			-3.843
19401.000			34.583			-3.843
19500.000			34.580			-3.842
19600.000			34.577			-3.842
19701.000			34.573			-3.841
19801.000			34.570			-3.841
19901.000			34.567			-3.841
20001.000			34.561			-3.840
20100.000			34.558			-3.840
20200.000			34.555			-3.839
20301.000			34.552			-3.839
20400.000			34.548			-3.839
20500.000			34.545			-3.838
20602.000			34.542			-3.838
20701.000			34.537			-3.837
20800.000			34.534			-3.837
20901.000			34.530			-3.837
21000.000			34.527			-3.836
21100.000			34.525			-3.836
21200.000			34.522			-3.836
21300.000			34.519			-3.835
21402.000			34.512			-3.835
21501.000			34.510			-3.834
21600.000			34.507			-3.834
21701.000			34.503			-3.834
21800.000			34.501			-3.833
21900.000			34.499			-3.833
22001.000			34.496			-3.833
22100.000			34.493			-3.833
22201.000			34.488			-3.832
22302.000			34.485			-3.832
22400.000			34.481			-3.831
22500.000			34.479			-3.831
22601.000			34.476			-3.831
22700.000			34.473			-3.830
22800.000			34.470			-3.830
22901.000			34.465			-3.829
23001.000			34.462			-3.829
23101.000			34.459			-3.829
23201.000			34.456			-3.828
23300.000			34.454			-3.828
23400.000			34.451			-3.828
23501.000			34.449			-3.828
23600.000			34.443			-3.827
23700.000			34.442			-3.827
23802.000			34.439			-3.827
23901.000			34.435			-3.826
24000.000			34.433			-3.826
24101.000			34.431			-3.826
24200.000			34.428			-3.825
24300.000			34.424			-3.825
24400.000			34.421			-3.825
24500.000			34.418			-3.824
24602.000			34.416			-3.824
24701.000			34.414			-3.824
24800.000			34.410			-3.823
24901.000			34.408			-3.823
25000.000			34.405			-3.823
25100.000			34.401			-3.822
25201.000			34.398			-3.822
25300.000			34.396			-3.822
25401.000			34.394			-3.822
25502.000			34.391			-3.821
25600.000			34.388			-3.821
25700.000			34.387			-3.821
25801.000			34.380			-3.820
25900.000			34.378			-3.820
26000.000			34.376			-3.820
26101.000			34.375			-3.819
26201.000			34.372			-3.819
26301.000			34.369			-3.819
26401.000			34.367			-3.819
26500.000			34.362			-3.818
26600.000			34.360			-3.818
26701.000			34.357			-3.817
26800.000			34.355			-3.817
26900.000			34.353			-3.817
27002.000			34.351			-3.817
27101.000			34.349			-3.817
27200.000			34.345			-3.816
27301.000			34.342			-3.816
27400.000			34.339			-3.815
27500.000			34.337			-3.815
27600.000			34.336			-3.815
27700.000			34.333			-3.815
27802.000			34.331			-3.815
27901.000			34.329			-3.814
28000.000			34.324			-3.814
28101.000			34.321			-3.813
28200.000			34.319			-3.813
28300.000			34.316			-3.813
28401.000			34.316			-3.813
28500.000			34.315			-3.813
28601.000			34.312			-3.812
28702.000			34.307			-3.812
28800.000			34.305			-3.812
28900.000			34.303			-3.811
29001.000			34.301			-3.811
29100.000			34.300			-3.811
29200.000			34.298			-3.811
29301.000			34.295			-3.811
29401.000			34.290			-3.810
29501.000			34.288			-3.810
29601.000			34.286			-3.810
29700.000			34.285			-3.809
29800.000			34.282			-3.809
29901.000			34.279			-3.809
30000.000			34.277			-3.809
30100.000			34.276			-3.808
30202.000			34.274			-3.808
30301.000			34.271			-3.808
30400.000			34.269			-3.808
30501.000			34.267			-3.807
30600.000			34.265			-3.807
30700.000			34.263			-3.807
30800.000			34.261			-3.807
30900.000			34.256			-3.806
31002.000			34.254			-3.806
31101.000			34.252			-3.806
31200.000			34.250			-3.806
31301.000			34.247			-3.805
31400.000			34.246			-3.805
31500.000			34.245			-3.805
31601.000			34.241			-3.805
31701.000			34.239			-3.804
31801.000			34.237			-3.804
31902.000			34.235			-3.804
32000.000			34.233			-3.804
32100.000			34.232			-3.804
32201.000			34.230			-3.803
32300.000			34.228			-3.803
32400.000			34.224			-3.803
32502.000			34.221			-3.802
32601.000			34.220			-3.802
32700.000			34.218			-3.802
32801.000			34.217			-3.802
32900.000			34.215			-3.802
33000.000			34.214			-3.802
33101.000			34.208			-3.801
33200.000			34.206			-3.801
33301.000			34.205			-3.801
33402.000			34.203			-3.800
33500.000			34.202			-3.800
33600.000			34.200			-3.800
33701.000			34.199			-3.800
33800.000			34.195			-3.799
33900.000			34.192			-3.799
34000.000			34.192			-3.799
34101.000			34.190			-3.799
34202.000			34.187			-3.799
34300.000			34.186			-3.798
34400.000			34.184			-3.798
34501.000			34.180			-3.798
34600.000			34.177			-3.797
34700.000			34.176			-3.797
34801.000			34.174			-3.797
34901.000			34.173			-3.797
35001.000			34.171			-3.797
35101.000			34.169			-3.797
35200.000			34.168			-3.796
35300.000			34.166			-3.796
35401.000			34.163			-3.796
35500.000			34.161			-3.796
35600.000			34.159			-3.795
35702.000			34.158			-3.795
35801.000			34.157			-3.795
35900.000			34.155			-3.795
36001.000			34.152			-3.795
36100.000			34.150			-3.794
36200.000			34.148			-3.794
36301.000			34.146			-3.794
36400.000			34.145			-3.794
36501.000			34.143			-3.794
36602.000			34.141			-3.793
36700.000			34.138			-3.793
36800.000			34.135			-3.793
36901.000			34.134			-3.793
37000.000			34.131			-3.792
37100.000			34.130			-3.792
37200.000			34.129			-3.792
37301.000			34.128			-3.792
37402.000			34.124			-3.792
37500.000			34.123			-3.791
37600.000			34.120			-3.791
37701.000			34.119			-3.791
37800.000			34.118			-3.791
37900.000			34.117			-3.791
38001.000			34.115			-3.791
38101.000			34.114			-3.790
38201.000			34.112			-3.790
38301.000			34.110			-3.790
38400.000			34.107			-3.790
38500.000			34.105			-3.789
38601.000			34.103			-3.789
38700.000			34.102			-3.789
38800.000			34.101			-3.789
38902.000			34.098			-3.789
39001.000			34.096			-3.788
39100.000			34.095			-3.788
39201.000			34.094			-3.788
39300.000			34.092			-3.788
39400.000			34.089			-3.788
39501.000			34.088			-3.788
39600.000			34.086			-3.787
39701.000			34.085			-3.787
39802.000			34.083			-3.787
39900.000			34.080			-3.787
40000.000			34.080			-3.787
40101.000			34.079			-3.787
40200.000			34.076			-3.786
40300.000			34.075			-3.786
40400.000			34.071			-3.786
40501.000			34.070			-3.786
40602.000			34.069			-3.785
40700.000			34.068			-3.785
40800.000			34.066			-3.785
40901.000			34.065			-3.785
41000.000			34.064			-3.785
41100.000			34.061			-3.785
41201.000			34.059			-3.784
41301.000			34.057			-3.784
41401.000			34.055			-3.784
41501.000			34.054			-3.784
41600.000			34.053			-3.784
41700.000			34.051			-3.783
41801.000			34.049			-3.783
41900.000			34.048			-3.783
42001.000			34.046			-3.783
42102.000			34.044			-3.783
42200.000			34.043			-3.783
42300.000			34.041			-3.782
42401.000			34.039			-3.782
42500.000			34.037			-3.782
42600.000			34.035			-3.782
42701.000			34.034			-3.782
42801.000			34.033			-3.781
42901.000			34.032			-3.781
43001.000			34.029			-3.781
43100.000			34.027			-3.781
43200.000			34.027			-3.781
43301.000			34.024			-3.780
43400.000			34.022			-3.780
43500.000			34.021			-3.780
43602.000			34.020			-3.780
43701.000			34.020			-3.780
43801.000			34.018			-3.780
43900.000			34.017			-3.780
44000.000			34.013			-3.779
44101.000			34.013			-3.779
44200.000			34.011			-3.779
44301.000			34.009			-3.779
44402.000			34.008			-3.779
44501.000			34.006			-3.778
44600.000			34.005			-3.778
44701.000			34.003			-3.778
44800.000			34.002			-3.778
44900.000			34.000			-3.778
45001.000			33.999			-3.778
45101.000			33.997			-3.777
45201.000			33.995			-3.777
45301.000			33.995			-3.777
45400.000			33.993			-3.777
45500.000			33.991			-3.777
45601.000			33.990			-3.777
45700.000			33.988			-3.776
45800.000			33.987			-3.776
45901.000			33.985			-3.776
46001.000			33.983			-3.776
46101.000			33.982			-3.776
46201.000			33.980			-3.776
46300.000			33.978			-3.775
46400.000			33.977			-3.775
46501.000			33.976			-3.775
46600.000			33.974			-3.775
46700.000			33.974			-3.775
46802.000			33.972			-3.775
46901.000			33.970			-3.774
47001.000			33.970			-3.774
47100.000			33.967			-3.774
47200.000			33.966			-3.774
47301.000			33.964			-3.774
47400.000			33.963			-3.774
47500.000			33.962			-3.774
47602.000			33.961			-3.773
47701.000			33.959			-3.773
47801.000			33.958			-3.773
47901.000			33.956			-3.773
48000.000			33.955			-3.773
48100.000			33.954			-3.773
48201.000			33.952			-3.772
48300.000			33.951			-3.772
48400.000			33.949			-3.772
48502.000			33.949			-3.772
48601.000			33.946			-3.772
48700.000			33.944			-3.772
48801.000			33.943			-3.771
48900.000			33.942			-3.771
49000.000			33.941			-3.771
49101.000			33.939			-3.771
49200.000			33.937			-3.771
49301.000			33.936			-3.771
49402.000			33.935			-3.771
49500.000			33.934			-3.770
49600.000			33.933			-3.770
49701.000			33.931			-3.770
49800.000			33.930			-3.770
49900.000			33.928			-3.770
50000.000			33.927			-3.770
50101.000			33.926			-3.770
50202.000			33.925			-3.769
50300.000			33.923			-3.769
50400.000			33.921			-3.769
50501.000			33.920			-3.769
50600.000			33.917			-3.769
50700.000			33.917			-3.769
50801.000			33.916			-3.768
50901.000			33.914			-3.768
51001.000			33.913			-3.768
51101.000			33.913			-3.768
51200.000			33.912			-3.768
51300.000			33.909			-3.768
51401.000			33.908			-3.768
51500.000			33.906			-3.767
51600.000			33.905			-3.767
51702.000			33.905			-3.767
51801.000			33.902			-3.767
51900.000			33.901			-3.767
52001.000			33.899			-3.767
52100.000			33.898			-3.766
52200.000			33.897			-3.766
52301.000			33.896			-3.766
52400.000			33.894			-3.766
52501.000			33.893			-3.766
52602.000			33.892			-3.766
52700.000			33.892			-3.766
52800.000			33.890			-3.766
52901.000			33.889			-3.765
53000.000			33.888			-3.765
53100.000			33.886			-3.765
53200.000			33.884			-3.765
53301.000			33.883			-3.765
53402.000			33.882			-3.765
53500.000			33.881			-3.765
53600.000			33.880			-3.764
53701.000			33.878			-3.764
53800.000			33.878			-3.764
53900.000			33.876			-3.764
54001.000			33.875			-3.764
54101.000			33.873			-3.764
54201.000			33.871			-3.763
54301.000			33.871			-3.763
54400.000			33.870			-3.763
54500.000			33.869			-3.763
54601.000			33.867			-3.763
54700.000			33.866			-3.763
54800.000			33.865			-3.763
54902.000			33.862			-3.762
55001.000			33.860			-3.762
55100.000			33.859			-3.762
55201.000			33.860			-3.762
55300.000			33.860			-3.762
55400.000			33.858			-3.762
55501.000			33.855			-3.762
55600.000			33.854			-3.762
55701.000			33.854			-3.762
55802.000			33.852			-3.761
55901.000			33.850			-3.761
56000.000			33.849			-3.761
56101.000			33.848			-3.761
56200.000			33.847			-3.761
56300.000			33.847			-3.761
56400.000			33.843			-3.760
56500.000			33.843			-3.760
56602.000			33.842			-3.760
56701.000			33.841			-3.760
56800.000			33.840			-3.760
56901.000			33.839			-3.760
57000.000			33.837			-3.760
57100.000			33.836			-3.760
57201.000			33.836			-3.760
57300.000			33.834			-3.759
57401.000			33.833			-3.759
57502.000			33.832			-3.759
57600.000			33.830			-3.759
57700.000			33.828			-3.759
57801.000			33.827			-3.759
57900.000			33.826			-3.758
58000.000			33.826			-3.758
58101.000			33.824			-3.758
58201.000			33.823			-3.758
58301.000			33.822			-3.758
58401.000			33.821			-3.758
58500.000			33.821			-3.758
58600.000			33.818			-3.758
58701.000			33.817			-3.757
58800.000			33.816			-3.757
58900.000			33.814			-3.757
59002.000			33.813			-3.757
59101.000			33.813			-3.757
59200.000			33.812			-3.757
59301.000			33.809			-3.757
59400.000			33.809			-3.757
59500.000			33.809			-3.757
59600.000			33.807			-3.756
59700.000			33.806			-3.756
59802.000			33.805			-3.756
59901.000			33.804			-3.756
60000.000			33.803			-3.756
60101.000			33.802			-3.756
60200.000			33.800			-3.756
60300.000			33.799			-3.755
60401.000			33.799			-3.755
60500.000			33.797			-3.755
60601.000			33.796			-3.755
60702.000			33.796			-3.755
60800.000			33.793			-3.755
60900.000			33.791			-3.755
61001.000			33.791			-3.755
61100.000			33.790			-3.754
61200.000			33.789			-3.754
61301.000			33.788			-3.754
61401.000			33.788			-3.754
61501.000			33.785			-3.754
61601.000			33.785			-3.754
61700.000			33.783			-3.754
61800.000			33.782			-3.754
61901.000			33.782			-3.754
62000.000			33.780			-3.753
62100.000			33.779			-3.753
62202.000			33.777			-3.753
62301.000			33.776			-3.753
62401.000			33.776			-3.753
62501.000			33.775			-3.753
62600.000			33.774			-3.753
62700.000			33.773			-3.753
62800.000			33.772			-3.752
62900.000			33.771			-3.752
63001.000			33.767			-3.752
63101.000			33.767			-3.752
63201.000			33.767			-3.752
63301.000			33.767			-3.752
63400.000			33.765			-3.752
63500.000			33.764			-3.752
63601.000			33.764			-3.752
63700.000			33.761			-3.751
63800.000			33.761			-3.751
63902.000			33.760			-3.751
64001.000			33.759			-3.751
64100.000			33.759			-3.751
64201.000			33.757			-3.751
64300.000			33.755			-3.751
64400.000			33.754			-3.750
64501.000			33.753			-3.750
64600.000			33.753			-3.750
64701.000			33.752			-3.750
64802.000			33.751			-3.750
64900.000			33.749			-3.750
65000.000			33.748			-3.750
65101.000			33.746			-3.750
65200.000			33.746			-3.750
65300.000			33.744			-3.749
65401.000			33.743			-3.749
65501.000			33.742			-3.749
65601.000			33.741			-3.749
65701.000			33.742			-3.749
65800.000			33.740			-3.749
65900.000			33.739			-3.749
66000.000			33.738			-3.749
66100.000			33.737			-3.749
66201.000			33.735			-3.748
66301.000			33.735			-3.748
66401.000			33.734			-3.748
66501.000			33.733			-3.748
66600.000			33.730			-3.748
66700.000			33.729			-3.748
66801.000			33.728			-3.748
66900.000			33.727			-3.747
67000.000			33.727			-3.747
67102.000			33.726			-3.747
67201.000			33.726			-3.747
67301.000			33.722			-3.747
67401.000			33.722			-3.747
67500.000			33.721			-3.747
67600.000			33.720			-3.747
67701.000			33.719			-3.747
67800.000			33.718			-3.746
67900.000			33.718			-3.746
68002.000			33.717			-3.746
68101.000			33.716			-3.746
68200.000			33.716			-3.746
68301.000			33.716			-3.746
68400.000			33.714			-3.746
68500.000			33.713			-3.746
68601.000			33.712			-3.746
68700.000			33.711			-3.746
68801.000			33.709			-3.745
68902.000			33.708			-3.745
69000.000			33.707			-3.745
69100.000			33.705			-3.745
69200.000			33.705			-3.745
69300.000			33.705			-3.745
69401.000			33.703			-3.745
69500.000			33.701			-3.745
69601.000			33.700			-3.744
69702.000			33.700			-3.744
69800.000			33.698			-3.744
69900.000			33.698			-3.744
70001.000			33.697			-3.744
70100.000			33.697			-3.744
70200.000			33.695			-3.744
70301.000			33.694			-3.744
70400.000			33.692			-3.744
70501.000			33.691			-3.743
70602.000			33.691			-3.743
70700.000			33.691			-3.743
70800.000			33.689			-3.743
70901.000			33.688			-3.743
71000.000			33.687			-3.743
71100.000			33.687			-3.743
71201.000			33.687			-3.743
71301.000			33.686			-3.743
71401.000			33.685			-3.743
71501.000			33.683			-3.743
71600.000			33.681			-3.742
71700.000			33.679			-3.742
71801.000			33.679			-3.742
71900.000			33.678			-3.742
72000.000			33.678			-3.742
72102.000			33.677			-3.742
72201.000			33.676			-3.742
72300.000			33.676			-3.742
72400.000			33.673			-3.741
72500.000			33.673			-3.741
72601.000			33.673			-3.741
72700.000			33.672			-3.741
72800.000			33.671			-3.741
72902.000			33.670			-3.741
73001.000			33.669			-3.741
73101.000			33.668			-3.741
73201.000			33.666			-3.741
73300.000			33.666			-3.741
73400.000			33.666			-3.741
73501.000			33.665			-3.741
73600.000			33.664			-3.740
73700.000			33.662			-3.740
73802.000			33.663			-3.740
73901.000			33.663			-3.740
74000.000			33.661			-3.740
74101.000			33.660			-3.740
74200.000			33.658			-3.740
74300.000			33.657			-3.740
74401.000			33.658			-3.740
74500.000			33.657			-3.740
74601.000			33.654			-3.739
74702.000			33.654			-3.739
74800.000			33.653			-3.739
74900.000			33.652			-3.739
75001.000			33.652			-3.739
75100.000			33.651			-3.739
75200.000			33.651			-3.739
75301.000			33.647			-3.739
75401.000			33.647			-3.739
75502.000			33.647			-3.739
75601.000			33.646			-3.738
75700.000			33.644			-3.738
75801.000			33.643			-3.738
75900.000			33.644			-3.738
76000.000			33.642			-3.738
76101.000			33.641			-3.738
76201.000			33.639			-3.738
76301.000			33.638			-3.738
76402.000			33.638			-3.738
76500.000			33.638			-3.738
76600.000			33.636			-3.737
76701.000			33.636			-3.737
76800.000			33.633			-3.737
76900.000			33.632			-3.737
77001.000			33.632			-3.737
77101.000			33.632			-3.737
77201.000			33.631			-3.737
77301.000			33.630			-3.737
77400.000			33.628			-3.736
77500.000			33.628			-3.736
77601.000			33.627			-3.736
77700.000			33.626			-3.736
77800.000			33.626			-3.736
77902.000			33.624			-3.736
78001.000			33.623			-3.736
78100.000			33.624			-3.736
78201.000			33.623			-3.736
78300.000			33.621			-3.736
78400.000			33.620			-3.736
78501.000			33.619			-3.735
78600.000			33.619			-3.735
78702.000			33.619			-3.735
78801.000			33.617			-3.735
78901.000			33.617			-3.735
79001.000			33.615			-3.735
79100.000			33.614			-3.735
79200.000			33.612			-3.735
79301.000			33.612			-3.735
79400.000			33.611			-3.735
79500.000			33.611			-3.735
79602.000			33.610			-3.734
79701.000			33.608			-3.734
79800.000			33.608			-3.734
79901.000			33.607			-3.734
80000.000			33.607			-3.734
80100.000			33.606			-3.734
80201.000			33.605			-3.734
80300.000			33.604			-3.734
80401.000			33.603			-3.734
80502.000			33.602			-3.734
80600.000			33.601			-3.733
80700.000			33.601			-3.733
80801.000			33.600			-3.733
80900.000			33.600			-3.733
81000.000			33.598			-3.733
81101.000			33.597			-3.733
81201.000			33.596			-3.733
81301.000			33.595			-3.733
81401.000			33.595			-3.733
81500.000			33.594			-3.733
81600.000			33.594			-3.733
81701.000			33.593			-3.733
81800.000			33.592			-3.732
81900.000			33.591			-3.732
82002.000			33.589			-3.732
82101.000			33.588			-3.732
82201.000			33.588			-3.732
82300.000			33.588			-3.732
82400.000			33.586			-3.732
82501.000			33.585			-3.732
82600.000			33.585			-3.732
82700.000			33.584			-3.732
82802.000			33.583			-3.731
82901.000			33.582			-3.731
83001.000			33.582			-3.731
83101.000			33.581			-3.731
83200.000			33.580			-3.731
83300.000			33.579			-3.731
83401.000			33.578			-3.731
83500.000			33.577			-3.731
83600.000			33.576			-3.731
83702.000			33.576			-3.731
83801.000			33.575			-3.731
83900.000			33.574			-3.730
84001.000			33.574			-3.730
84100.000			33.572			-3.730
84200.000			33.571			-3.730
84301.000			33.570			-3.730
84400.000			33.569			-3.730
84501.000			33.568			-3.730
84602.000			33.568			-3.730
84700.000			33.568			-3.730
84800.000			33.566			-3.730
84901.000			33.566			-3.730
85000.000			33.565			-3.729
85100.000			33.565			-3.729
85200.000			33.563			-3.729
85300.000			33.563			-3.729
85402.000			33.563			-3.729
85501.000			33.561			-3.729
85600.000			33.560			-3.729
85701.000			33.558			-3.729
85800.000			33.558			-3.729
85900.000			33.558			-3.729
86001.000			33.557			-3.729
86100.000			33.557			-3.729
86201.000			33.557			-3.729
86302.000			33.554			-3.728
86400.000			33.554			-3.728
86500.000			33.553			-3.728
86601.000			33.552			-3.728
86700.000			33.551			-3.728
86800.000			33.549			-3.728
86901.000			33.550			-3.728
87001.000			33.549			-3.728
87101.000			33.548			-3.728
87201.000			33.547			-3.727
87300.000			33.547			-3.727
87400.000			33.546			-3.727
87501.000			33.545			-3.727
87600.000			33.546			-3.727
87700.000			33.545			-3.727
87801.000			33.544			-3.727
87901.000			33.543			-3.727
88001.000			33.542			-3.727
88101.000			33.541			-3.727
88200.000			33.540			-3.727
88300.000			33.539			-3.727
88400.000			33.537			-3.726
88500.000			33.537			-3.726
88601.000			33.537			-3.726
88701.000			33.536			-3.726
88801.000			33.535			-3.726
88901.000			33.534			-3.726
89000.000			33.533			-3.726
89100.000			33.533			-3.726
89201.000			33.531			-3.726
89300.000			33.529			-3.725
89400.000			33.530			-3.726
89502.000			33.530			-3.726
89601.000			33.529			-3.725
89701.000			33.529			-3.725
89801.000			33.527			-3.725
89900.000			33.526			-3.725
90000.000			33.527			-3.725
90101.000			33.525			-3.725
90200.000			33.523			-3.725
90300.000			33.523			-3.725
90402.000			33.522			-3.725
90501.000			33.521			-3.725
90600.000			33.521			-3.725
90701.000			33.520			-3.724
90800.000			33.520			-3.724
90900.000			33.519			-3.724
91001.000			33.517			-3.724
91100.000			33.517			-3.724
91201.000			33.517			-3.724
91302.000			33.516			-3.724
91400.000			33.515			-3.724
91500.000			33.514			-3.724
91600.000			33.513			-3.724
91700.000			33.513			-3.724
91801.000			33.513			-3.724
91900.000			33.512			-3.724
92001.000			33.510			-3.723
92102.000			33.510			-3.723
92200.000			33.509			-3.723
92300.000			33.508			-3.723
92401.000			33.507			-3.723
92500.000			33.508			-3.723
92600.000			33.507			-3.723
92701.000			33.506			-3.723
92801.000			33.505			-3.723
92901.000			33.504			-3.723
93001.000			33.503			-3.723
93100.000			33.502			-3.722
93200.000			33.502			-3.722
93301.000			33.502			-3.722
93400.000			33.500			-3.722
93500.000			33.498			-3.722
93602.000			33.498			-3.722
93701.000			33.498			-3.722
93800.000			33.497			-3.722
93901.000			33.497			-3.722
94000.000			33.496			-3.722
94100.000			33.495			-3.722
94201.000			33.495			-3.722
94300.000			33.494			-3.722
94400.000			33.493			-3.721
94502.000			33.492			-3.721
94601.000			33.491			-3.721
94700.000			33.490			-3.721
94800.000			33.490			-3.721
94900.000			33.490			-3.721
95001.000			33.489			-3.721
95100.000			33.488			-3.721
95200.000			33.487			-3.721
95302.000			33.487			-3.721
95401.000			33.486			-3.721
95500.000			33.485			-3.721
95601.000			33.485			-3.721
95700.000			33.484			-3.720
95800.000			33.482			-3.720
95901.000			33.481			-3.720
96000.000			33.480			-3.720
96100.000			33.480			-3.720
96202.000			33.479			-3.720
96301.000			33.479			-3.720
96400.000			33.478			-3.720
96501.000			33.477			-3.720
96600.000			33.477			-3.720
96700.000			33.478			-3.720
96801.000			33.476			-3.720
96900.000			33.476			-3.720
97001.000			33.474			-3.719
97102.000			33.473			-3.719
97200.000			33.472			-3.719
97300.000			33.472			-3.719
97401.000			33.471			-3.719
97500.000			33.471			-3.719
97600.000			33.471			-3.719
97701.000			33.471			-3.719
97801.000			33.470			-3.719
97902.000			33.469			-3.719
98001.000			33.468			-3.719
98100.000			33.467			-3.719
98201.000			33.466			-3.718
98300.000			33.466			-3.718
98400.000			33.466			-3.718
98501.000			33.465			-3.718
98600.000			33.463			-3.718
98701.000			33.462			-3.718
98802.000			33.462			-3.718
98900.000			33.461			-3.718
99000.000			33.461			-3.718
99101.000			33.460			-3.718
99200.000			33.460			-3.718
99300.000			33.459			-3.718
99401.000			33.458			-3.718
99501.000			33.457			-3.717
99601.000			33.455			-3.717
99702.000			33.455			-3.717
99800.000			33.455			-3.717
99900.000			33.454			-3.717
100001.000			33.454			-3.717
100100.000			33.453			-3.717
100200.000			33.453			-3.717
100301.000			33.453			-3.717
100401.000			33.453			-3.717
100501.000			33.451			-3.717
100601.000			33.450			-3.717
100700.000			33.450			-3.717
100800.000			33.449			-3.717
100901.000			33.447			-3.716
101000.000			33.447			-3.716
101100.000			33.447			-3.716
101202.000			33.446			-3.716
101301.000			33.445			-3.716
101401.000			33.445			-3.716
101500.000			33.442			-3.716
101600.000			33.442			-3.716
101701.000			33.442			-3.716
101800.000			33.442			-3.716
101900.000			33.442			-3.716
102002.000			33.441			-3.716
102101.000			33.440			-3.716
102200.000			33.439			-3.715
102301.000			33.439			-3.715
102400.000			33.438			-3.715
102500.000			33.437			-3.715
102601.000			33.436			-3.715
102700.000			33.436			-3.715
102800.000			33.435			-3.715
102902.000			33.435			-3.715
103001.000			33.435			-3.715
103100.000			33.434			-3.715
103201.000			33.432			-3.715
103300.000			33.432			-3.715
103400.000			33.431			-3.715
103501.000			33.431			-3.715
103600.000			33.431			-3.715
103701.000			33.429			-3.714
103802.000			33.428			-3.714
103900.000			33.428			-3.714
104000.000			33.427			-3.714
104101.000			33.427			-3.714
104200.000			33.427			-3.714
104300.000			33.426			-3.714
104400.000			33.425			-3.714
104501.000			33.423			-3.714
104602.000			33.423			-3.714
104700.000			33.422			-3.714
104800.000			33.422			-3.714
104901.000			33.422			-3.714
105000.000			33.421			-3.713
105100.000			33.420			-3.713
105201.000			33.419			-3.713
105301.000			33.418			-3.713
105401.000			33.418			-3.713
105502.000			33.418			-3.713
105600.000			33.417			-3.713
105700.000			33.416			-3.713
105801.000			33.416			-3.713
105900.000			33.414			-3.713
106000.000			33.414			-3.713
106101.000			33.414			-3.713
106201.000			33.414			-3.713
106301.000			33.413			-3.713
106401.000			33.412			-3.712
106500.000			33.412			-3.712
106600.000			33.410			-3.712
106701.000			33.410			-3.712
106800.000			33.409			-3.712
106900.000			33.408			-3.712
107002.000			33.408			-3.712
107101.000			33.407			-3.712
107200.000			33.406			-3.712
107301.000			33.407			-3.712
107400.000			33.404			-3.712
107500.000			33.405			-3.712
107600.000			33.404			-3.712
107700.000			33.403			-3.711
107802.000			33.402			-3.711
107901.000			33.401			-3.711
108001.000			33.401			-3.711
108101.000			33.402			-3.711
108200.000			33.401			-3.711
108300.000			33.400			-3.711
108401.000			33.400			-3.711
108500.000			33.399			-3.711
108600.000			33.398			-3.711
108702.000			33.397			-3.711
108801.000			33.395			-3.711
108900.000			33.395			-3.711
109001.000			33.395			-3.711
109100.000			33.394			-3.710
109200.000			33.393			-3.710
109301.000			33.393			-3.710
109400.000			33.393			-3.710
109500.000			33.392			-3.710
109602.000			33.391			-3.710
109701.000			33.391			-3.710
109800.000			33.391			-3.710
109901.000			33.390			-3.710
110000.000			33.389			-3.710
110100.000			33.388			-3.710
110201.000			33.388			-3.710
110300.000			33.387			-3.710
110401.000			33.386			-3.710
110502.000			33.387			-3.710
110600.000			33.386			-3.710
110700.000			33.385			-3.709
110800.000			33.384			-3.709
110900.000			33.383			-3.709
111001.000			33.383			-3.709
111100.000			33.381			-3.709
111200.000			33.381			-3.709
111302.000			33.381			-3.709
111401.000			33.380			-3.709
111500.000			33.380			-3.709
111601.000			33.380			-3.709
111700.000			33.378			-3.709
111800.000			33.378			-3.709
111901.000			33.377			-3.709
112000.000			33.376			-3.708
112101.000			33.376			-3.708
112202.000			33.375			-3.708
112300.000			33.374			-3.708
112400.000			33.374			-3.708
112501.000			33.373			-3.708
112600.000			33.374			-3.708
112700.000			33.373			-3.708
112801.000			33.372			-3.708
112901.000			33.371			-3.708
113001.000			33.371			-3.708
113101.000			33.371			-3.708
113200.000			33.369			-3.708
113300.000			33.368			-3.708
113401.000			33.368			-3.708
113500.000			33.367			-3.707
113600.000			33.366			-3.707
113702.000			33.366			-3.707
113801.000			33.365			-3.707
113902.000			33.365			-3.707
114000.000			33.364			-3.707
114100.000			33.364			-3.707
114201.000			33.365			-3.707
114300.000			33.363			-3.707
114400.000			33.362			-3.707
114501.000			33.362			-3.707
114601.000			33.362			-3.707
114701.000			33.359			-3.707
114801.000			33.359			-3.707
114900.000			33.359			-3.707
115000.000			33.358			-3.706
115101.000			33.359			-3.707
115200.000			33.358			-3.706
115300.000			33.358			-3.706
115402.000			33.356			-3.706
115501.000			33.355			-3.706
115601.000			33.355			-3.706
115701.000			33.354			-3.706
115800.000			33.353			-3.706
115900.000			33.354			-3.706
116001.000			33.353			-3.706
116100.000			33.352			-3.706
116200.000			33.351			-3.706
116302.000			33.351			-3.706
116401.000			33.350			-3.706
116500.000			33.350			-3.706
116601.000			33.350			-3.706
116700.000			33.349			-3.705
116800.000			33.348			-3.705
116901.000			33.348			-3.705
117000.000			33.347			-3.705
117102.000			33.346			-3.705
117201.000			33.345			-3.705
117300.000			33.345			-3.705
117401.000			33.346			-3.705
117500.000			33.345			-3.705
117600.000			33.343			-3.705
117701.000			33.343			-3.705
117800.000			33.342			-3.705
117900.000			33.341			-3.705
118002.000			33.341			-3.705
118101.000			33.341			-3.705
118200.000			33.340			-3.704
118301.000			33.341			-3.705
118400.000			33.340			-3.704
118500.000			33.339			-3.704
118601.000			33.338			-3.704
118700.000			33.337			-3.704
118801.000			33.337			-3.704
118902.000			33.338			-3.704
119001.000			33.336			-3.704
119100.000			33.335			-3.704
119201.000			33.335			-3.704
119300.000			33.334			-3.704
119400.000			33.335			-3.704
119501.000			33.333			-3.704
119600.000			33.333			-3.704
119701.000			33.331			-3.703
119802.000			33.330			-3.703
119901.000			33.330			-3.703
120000.000			33.330			-3.703
120101.000			33.329			-3.703
120200.000			33.328			-3.703
120300.000			33.328			-3.703
120400.000			33.329			-3.703
120500.000			33.327			-3.703
120602.000			33.326			-3.703
120701.000			33.326			-3.703
120800.000			33.326			-3.703
120901.000			33.325			-3.703
121000.000			33.325			-3.703
121100.000			33.324			-3.703
121201.000			33.323			-3.703
121300.000			33.322			-3.702
121401.000			33.322			-3.702
121502.000			33.321			-3.702
121600.000			33.321			-3.702
121700.000			33.320			-3.702
121801.000			33.319			-3.702
121900.000			33.319			-3.702
122000.000			33.318			-3.702
122101.000			33.318			-3.702
122201.000			33.318			-3.702
122301.000			33.318			-3.702
122401.000			33.316			-3.702
122500.000			33.316			-3.702
122600.000			33.316			-3.702
122701.000			33.315			-3.702
122800.000			33.313			-3.701
122900.000			33.313			-3.701
123002.000			33.313			-3.701
123101.000			33.313			-3.701
123201.000			33.313			-3.701
123301.000			33.313			-3.701
123400.000			33.311			-3.701
123500.000			33.310			-3.701
123600.000			33.310			-3.701
123700.000			33.310			-3.701
123801.000			33.309			-3.701
123901.000			33.309			-3.701
124001.000			33.308			-3.701
124101.000			33.308			-3.701
124200.000			33.307			-3.701
124300.000			33.306			-3.701
124401.000			33.306			-3.701
124500.000			33.305			-3.701
124600.000			33.304			-3.700
124702.000			33.305			-3.701
124801.000			33.304			-3.700
124900.000			33.304			-3.700
125001.000			33.303			-3.700
125100.000			33.303			-3.700
125200.000			33.302			-3.700
125301.000			33.301			-3.700
125400.000			33.301			-3.700
125501.000			33.300			-3.700
125602.000			33.300			-3.700
125700.000			33.299			-3.700
125800.000			33.298			-3.700
125901.000			33.297			-3.700
126000.000			33.296			-3.700
126100.000			33.296			-3.700
126201.000			33.296			-3.700
126300.000			33.296			-3.700
126401.000			33.295			-3.699
126502.000			33.294			-3.699
126600.000			33.295			-3.699
126700.000			33.294			-3.699
126800.000			33.294			-3.699
126900.000			33.293			-3.699
127001.000			33.292			-3.699
127100.000			33.291			-3.699
127200.000			33.290			-3.699
127302.000			33.289			-3.699
127401.000			33.290			-3.699
127500.000			33.289			-3.699
127601.000			33.289			-3.699
127700.000			33.288			-3.699
127800.000			33.288			-3.699
127901.000			33.287			-3.699
128000.000			33.287			-3.699
128101.000			33.287			-3.699
128202.000			33.287			-3.699
128301.000			33.285			-3.698
128400.000			33.284			-3.698
128501.000			33.284			-3.698
128600.000			33.284			-3.698
128700.000			33.284			-3.698
128801.000			33.283			-3.698
128900.000			33.283			-3.698
129001.000			33.282			-3.698
129102.000			33.282			-3.698
129200.000			33.280			-3.698
129300.000			33.279			-3.698
129401.000			33.279			-3.698
129500.000			33.280			-3.698
129600.000			33.280			-3.698
129701.000			33.278			-3.698
129800.000			33.278			-3.698
129902.000			33.277			-3.697
130001.000			33.276			-3.697
130100.000			33.275			-3.697
130201.000			33.274			-3.697
130300.000			33.274			-3.697
130400.000			33.273			-3.697
130501.000			33.273			-3.697
130600.000			33.273			-3.697
130701.000			33.272			-3.697
130802.000			33.271			-3.697
130900.000			33.271			-3.697
131000.000			33.270			-3.697
131101.000			33.270			-3.697
131200.000			33.270			-3.697
131300.000			33.269			-3.697
131401.000			33.269			-3.697
131500.000			33.269			-3.697
131601.000			33.268			-3.696
131702.000			33.267			-3.696
131800.000			33.267			-3.696
131900.000			33.267			-3.696
132001.000			33.266			-3.696
132100.000			33.264			-3.696
132200.000			33.264			-3.696
132301.000			33.264			-3.696
132400.000			33.263			-3.696
132501.000			33.263			-3.696
132602.000			33.263			-3.696
132701.000			33.263			-3.696
132800.000			33.261			-3.696
132901.000			33.261			-3.696
133000.000			33.260			-3.696
133100.000			33.261			-3.696
133200.000			33.260			-3.696
133300.000			33.259			-3.695
133402.000			33.260			-3.696
133501.000			33.260			-3.696
133600.000			33.258			-3.695
133701.000			33.257			-3.695
133800.000			33.257			-3.695
133900.000			33.256			-3.695
134001.000			33.255			-3.695
134100.000			33.254			-3.695
134200.000			33.254			-3.695
134302.000			33.254			-3.695
134401.000			33.254			-3.695
134500.000			33.253			-3.695
134601.000			33.253			-3.695
134700.000			33.252			-3.695
134800.000			33.252			-3.695
134901.000			33.251			-3.695
135000.000			33.251			-3.695
135100.000			33.250			-3.694
135202.000			33.250			-3.694
135301.000			33.249			-3.694
135400.000			33.249			-3.694
135501.000			33.248			-3.694
135600.000			33.247			-3.694
135700.000			33.247			-3.694
135801.000			33.247			-3.694
135900.000			33.247			-3.694
136000.000			33.246			-3.694
136102.000			33.244			-3.694
136201.000			33.244			-3.694
136302.000			33.244			-3.694
136400.000			33.244			-3.694
136500.000			33.243			-3.694
136601.000			33.243			-3.694
136700.000			33.242			-3.694
136800.000			33.241			-3.693
136901.000			33.240			-3.693
137000.000			33.240			-3.693
137101.000			33.240			-3.693
137202.000			33.237			-3.693
137300.000			33.238			-3.693
137400.000			33.237			-3.693
137501.000			33.237			-3.693
137600.000			33.237			-3.693
137700.000			33.237			-3.693
137801.000			33.237			-3.693
137900.000			33.237			-3.693
138001.000			33.237			-3.693
138102.000			33.235			-3.693
138200.000			33.236			-3.693
138300.000			33.235			-3.693
138401.000			33.234			-3.693
138500.000			33.233			-3.693
138600.000			33.233			-3.693
138701.000			33.232			-3.692
138800.000			33.231			-3.692
138901.000			33.231			-3.692
139002.000			33.232			-3.692
139100.000			33.232			-3.692
139200.000			33.230			-3.692
139301.000			33.229			-3.692
139400.000			33.229			-3.692
139500.000			33.228			-3.692
139600.000			33.228			-3.692
139700.000			33.228			-3.692
139802.000			33.227			-3.692
139901.000			33.225			-3.692
140001.000			33.225			-3.692
140101.000			33.225			-3.692
140200.000			33.225			-3.692
140300.000			33.224			-3.692
140401.000			33.224			-3.692
140500.000			33.224			-3.692
140600.000			33.223			-3.691
140702.000			33.223			-3.691
140801.000			33.222			-3.691
140901.000			33.222			-3.691
141001.000			33.222			-3.691
141100.000			33.221			-3.691
141200.000			33.219			-3.691
141301.000			33.218			-3.691
141400.000			33.218			-3.691
141500.000			33.218			-3.691
141602.000			33.218			-3.691
141701.000			33.218			-3.691
141801.000			33.217			-3.691
141901.000			33.216			-3.691
142000.000			33.216			-3.691
142100.000			33.215			-3.691
142201.000			33.215			-3.691
142300.000			33.214			-3.690
142400.000			33.214			-3.690
142502.000			33.214			-3.690
142601.000			33.214			-3.690
142702.000			33.213			-3.690
142800.000			33.212			-3.690
142900.000			33.212			-3.690
143001.000			33.212			-3.690
143100.000			33.211			-3.690
143200.000			33.210			-3.690
143301.000			33.208			-3.690
143401.000			33.209			-3.690
143501.000			33.209			-3.690
143602.000			33.209			-3.690
143700.000			33.210			-3.690
143800.000			33.208			-3.690
143901.000			33.207			-3.690
144000.000			33.207			-3.690
144100.000			33.206			-3.690
144201.000			33.206			-3.690
144301.000			33.206			-3.690
144401.000			33.205			-3.689
144502.000			33.203			-3.689
144600.000			33.204			-3.689
144700.000			33.203			-3.689
144801.000			33.203			-3.689
144900.000			33.202			-3.689
145000.000			33.201			-3.689
145101.000			33.201			-3.689
145201.000			33.201			-3.689
145301.000			33.202			-3.689
145401.000			33.200			-3.689
145500.000			33.200			-3.689
145600.000			33.199			-3.689
145701.000			33.199			-3.689
145800.000			33.199			-3.689
145900.000			33.198			-3.689
146000.000			33.197			-3.689
146101.000			33.197			-3.689
146202.000			33.196			-3.688
146301.000			33.197			-3.689
146400.000			33.196			-3.688
146501.000			33.195			-3.688
146600.000			33.194			-3.688
146700.000			33.194			-3.688
146801.000			33.193			-3.688
146900.000			33.193			-3.688
147000.000			33.192			-3.688
147102.000			33.192			-3.688
147201.000			33.192			-3.688
147300.000			33.191			-3.688
147401.000			33.191			-3.688
147500.000			33.191			-3.688
147600.000			33.190			-3.688
147701.000			33.190			-3.688
147800.000			33.190			-3.688
147900.000			33.189			-3.688
148002.000			33.188			-3.688
148101.000			33.187			-3.687
148201.000			33.186			-3.687
148301.000			33.186			-3.687
148400.000			33.186			-3.687
148500.000			33.185			-3.687
148601.000			33.186			-3.687
148700.000			33.185			-3.687
148800.000			33.185			-3.687
148901.000			33.184			-3.687
149001.000			33.184			-3.687
149102.000			33.183			-3.687
149201.000			33.182			-3.687
149300.000			33.181			-3.687
149401.000			33.181			-3.687
149500.000			33.181			-3.687
149600.000			33.181			-3.687
149701.000			33.180			-3.687
149800.000			33.180			-3.687
149900.000			33.179			-3.687
150002.000			33.178			-3.686
150101.000			33.179			-3.687
150200.000			33.178			-3.686
150301.000			33.177			-3.686
150400.000			33.177			-3.686
150500.000			33.175			-3.686
150601.000			33.176			-3.686
150700.000			33.175			-3.686
150800.000			33.175			-3.686
150902.000			33.175			-3.686
151001.000			33.175			-3.686
151100.000			33.174			-3.686
151201.000			33.174			-3.686
151300.000			33.173			-3.686
151400.000			33.174			-3.686
151501.000			33.173			-3.686
151600.000			33.172			-3.686
151700.000			33.172			-3.686
151802.000			33.171			-3.686
151901.000			33.171			-3.686
152000.000			33.170			-3.686
152101.000			33.169			-3.685
152200.000			33.169			-3.685
152300.000			33.168			-3.685
152400.000			33.167			-3.685
152500.000			33.167			-3.685
152601.000			33.166			-3.685
152701.000			33.166			-3.685
152801.000			33.166			-3.685
152901.000			33.166			-3.685
153000.000			33.166			-3.685
153100.000			33.165			-3.685
153201.000			33.164			-3.685
153300.000			33.163			-3.685
153400.000			33.164			-3.685
153501.000			33.163			-3.685
153601.000			33.163			-3.685
153701.000			33.163			-3.685
153802.000			33.163			-3.685
153900.000			33.162			-3.685
154000.000			33.161			-3.685
154101.000			33.161			-3.685
154200.000			33.160			-3.684
154300.000			33.160			-3.684
154401.000			33.160			-3.684
154500.000			33.159			-3.684
154601.000			33.158			-3.684
154702.000			33.157			-3.684
154800.000			33.157			-3.684
154900.000			33.157			-3.684
155001.000			33.157			-3.684
155100.000			33.156			-3.684
155200.000			33.155			-3.684
155301.000			33.156			-3.684
155400.000			33.155			-3.684
155502.000			33.155			-3.684
155601.000			33.154			-3.684
155701.000			33.154			-3.684
155801.000			33.153			-3.684
155900.000			33.154			-3.684
156000.000			33.153			-3.684
156101.000			33.152			-3.684
156200.000			33.151			-3.683
156300.000			33.151			-3.683
156402.000			33.151			-3.683
156501.000			33.150			-3.683
156601.000			33.150			-3.683
156701.000			33.149			-3.683
156800.000			33.149			-3.683
156900.000			33.149			-3.683
157001.000			33.148			-3.683
157100.000			33.147			-3.683
157200.000			33.146			-3.683
157301.000			33.146			-3.683
157401.000			33.146			-3.683
157501.000			33.146			-3.683
157601.000			33.144			-3.683
157700.000			33.144			-3.683
157800.000			33.144			-3.683
157901.000			33.144			-3.683
158000.000			33.144			-3.683
158100.000			33.143			-3.683
158201.000			33.142			-3.682
158301.000			33.142			-3.682
158401.000			33.141			-3.682
158501.000			33.141			-3.682
158600.000			33.141			-3.682
158700.000			33.140			-3.682
158800.000			33.141			-3.682
158900.000			33.141			-3.682
159001.000			33.139			-3.682
159100.000			33.139			-3.682
159201.000			33.139			-3.682
159302.000			33.139			-3.682
159401.000			33.138			-3.682
159500.000			33.137			-3.682
159601.000			33.137			-3.682
159700.000			33.136			-3.682
159800.000			33.135			-3.682
159901.000			33.134			-3.682
160000.000			33.134			-3.682
160100.000			33.135			-3.682
160202.000			33.133			-3.681
160301.000			33.132			-3.681
160400.000			33.133			-3.681
160501.000			33.132			-3.681
160600.000			33.132			-3.681
160700.000			33.131			-3.681
160801.000			33.131			-3.681
160900.000			33.131			-3.681
161000.000			33.132			-3.681
161102.000			33.131			-3.681
161201.000			33.131			-3.681
161300.000			33.129			-3.681
161401.000			33.129			-3.681
161500.000			33.130			-3.681
161600.000			33.129			-3.681
161701.000			33.128			-3.681
161800.000			33.127			-3.681
161900.000			33.127			-3.681
162002.000			33.126			-3.681
162101.000			33.126			-3.681
162201.000			33.125			-3.681
162300.000			33.126			-3.681
162400.000			33.125			-3.681
162501.000			33.125			-3.681
162600.000			33.125			-3.681
162700.000			33.124			-3.680
162802.000			33.123			-3.680
162901.000			33.122			-3.680
163001.000			33.122			-3.680
163101.000			33.122			-3.680
163200.000			33.122			-3.680
163300.000			33.121			-3.680
163401.000			33.121			-3.680
163500.000			33.120			-3.680
163600.000			33.119			-3.680
163702.000			33.120			-3.680
163801.000			33.119			-3.680
163901.000			33.119			-3.680
164001.000			33.119			-3.680
164100.000			33.118			-3.680
164200.000			33.117			-3.680
164301.000			33.117			-3.680
164400.000			33.116			-3.680
164500.000			33.115			-3.679
164602.000			33.115			-3.679
164701.000			33.115			-3.679
164801.000			33.115			-3.679
164901.000			33.114			-3.679
165000.000			33.114			-3.679
165100.000			33.114			-3.679
165200.000			33.113			-3.679
165300.000			33.113			-3.679
165401.000			33.112			-3.679
165501.000			33.112			-3.679
165601.000			33.112			-3.679
165702.000			33.110			-3.679
165800.000			33.110			-3.679
165900.000			33.110			-3.679
166001.000			33.110			-3.679
166100.000			33.111			-3.679
166200.000			33.111			-3.679
166301.000			33.109			-3.679
166401.000			33.109			-3.679
166501.000			33.108			-3.679
166602.000			33.107			-3.679
166700.000			33.107			-3.679
166800.000			33.107			-3.679
166901.000			33.107			-3.679
167000.000			33.106			-3.678
167100.000			33.105			-3.678
167201.000			33.104			-3.678
167300.000			33.103			-3.678
167401.000			33.104			-3.678
167502.000			33.105			-3.678
167600.000			33.103			-3.678
167700.000			33.103			-3.678
167801.000			33.103			-3.678
167900.000			33.103			-3.678
168000.000			33.101			-3.678
168101.000			33.101			-3.678
168200.000			33.100			-3.678
168302.000			33.100			-3.678
168401.000			33.100			-3.678
168500.000			33.100			-3.678
168601.000			33.099			-3.678
168700.000			33.098			-3.678
168800.000			33.098			-3.678
168901.000			33.098			-3.678
169000.000			33.098			-3.678
169100.000			33.098			-3.678
169202.000			33.098			-3.678
169301.000			33.097			-3.677
169401.000			33.096			-3.677
169501.000			33.096			-3.677
169600.000			33.096			-3.677
169700.000			33.094			-3.677
169801.000			33.094			-3.677
169900.000			33.093			-3.677
170000.000			33.093			-3.677
170101.000			33.093			-3.677
170201.000			33.092			-3.677
170301.000			33.092			-3.677
170402.000			33.093			-3.677
170500.000			33.092			-3.677
170600.000			33.092			-3.677
170701.000			33.090			-3.677
170800.000			33.089			-3.677
170900.000			33.089			-3.677
171001.000			33.090			-3.677
171101.000			33.089			-3.677
171201.000			33.088			-3.676
171302.000			33.088			-3.676
171400.000			33.089			-3.677
171500.000			33.089			-3.677
171600.000			33.087			-3.676
171700.000			33.086			-3.676
171801.000			33.087			-3.676
171900.000			33.086			-3.676
172000.000			33.086			-3.676
172102.000			33.086			-3.676
172201.000			33.083			-3.676
172300.000			33.083			-3.676
172401.000			33.084			-3.676
172500.000			33.083			-3.676
172600.000			33.082			-3.676
172701.000			33.083			-3.676
172800.000			33.083			-3.676
172900.000			33.082			-3.676
173002.000			33.081			-3.676
173101.000			33.081			-3.676
173201.000			33.081			-3.676
173301.000			33.081			-3.676
173400.000			33.080			-3.676
173500.000			33.080			-3.676
173601.000			33.080			-3.676
173700.000			33.079			-3.675
173800.000			33.079			-3.675
173902.000			33.078			-3.675
174001.000			33.078			-3.675
174101.000			33.077			-3.675
174201.000			33.077			-3.675
174300.000			33.076			-3.675
174400.000			33.077			-3.675
174501.000			33.077			-3.675
174600.000			33.075			-3.675
174700.000			33.075			-3.675
174800.000			33.075			-3.675
174901.000			33.074			-3.675
175002.000			33.074			-3.675
175101.000			33.073			-3.675
175200.000			33.073			-3.675
175301.000			33.073			-3.675
175400.000			33.071			-3.675
175500.000			33.071			-3.675
175601.000			33.071			-3.675
175700.000			33.072			-3.675
175801.000			33.070			-3.674
175902.000			33.070			-3.674
176001.000			33.069			-3.674
176100.000			33.068			-3.674
176201.000			33.068			-3.674
176300.000			33.069			-3.674
176400.000			33.068			-3.674
176501.000			33.068			-3.674
176600.000			33.067			-3.674
176700.000			33.067			-3.674
176802.000			33.066			-3.674
176901.000			33.065			-3.674
177000.000			33.065			-3.674
177101.000			33.065			-3.674
177200.000			33.065			-3.674
177300.000			33.064			-3.674
177401.000			33.064			-3.674
177500.000			33.064			-3.674
177600.000			33.064			-3.674
177702.000			33.062			-3.674
177801.000			33.062			-3.674
177900.000			33.063			-3.674
178000.000			33.062			-3.674
178100.000			33.062			-3.674
178201.000			33.061			-3.673
178300.000			33.060			-3.673
178400.000			33.060			-3.673
178501.000			33.060			-3.673
178601.000			33.059			-3.673
178701.000			33.059			-3.673
178802.000			33.059			-3.673
178900.000			33.058			-3.673
179000.000			33.057			-3.673
179101.000			33.058			-3.673
179200.000			33.058			-3.673
179300.000			33.056			-3.673
179401.000			33.057			-3.673
179500.000			33.055			-3.673
179601.000			33.055			-3.673
179702.000			33.055			-3.673
179800.000			33.054			-3.673
179900.000			33.054			-3.673
180001.000			33.054			-3.673
180100.000			33.054			-3.673
180200.000			33.054			-3.673
180301.000			33.053			-3.673
180400.000			33.053			-3.673
180501.000			33.053			-3.673
180602.000			33.052			-3.672
180700.000			33.053			-3.673
180800.000			33.052			-3.672
180901.000			33.051			-3.672
181000.000			33.051			-3.672
181100.000			33.051			-3.672
181200.000			33.050			-3.672
181300.000			33.050			-3.672
181402.000			33.049			-3.672
181501.000			33.049			-3.672
181600.000			33.048			-3.672
181701.000			33.048			-3.672
181800.000			33.048			-3.672
181900.000			33.047			-3.672
182001.000			33.047			-3.672
182100.000			33.047			-3.672
182200.000			33.047			-3.672
182302.000			33.046			-3.672
182401.000			33.046			-3.672
182501.000			33.044			-3.672
182601.000			33.044			-3.672
182700.000			33.045			-3.672
182800.000			33.044			-3.672
182901.000			33.044			-3.672
183000.000			33.044			-3.672
183100.000			33.043			-3.671
183201.000			33.043			-3.671
183301.000			33.042			-3.671
183401.000			33.041			-3.671
183501.000			33.041			-3.671
183600.000			33.041			-3.671
183700.000			33.042			-3.671
183801.000			33.040			-3.671
183900.000			33.040			-3.671
184000.000			33.040			-3.671
184101.000			33.040			-3.671
184201.000			33.040			-3.671
184302.000			33.039			-3.671
184400.000			33.038			-3.671
184500.000			33.038			-3.671
184601.000			33.038			-3.671
184700.000			33.038			-3.671
184800.000			33.038			-3.671
184901.000			33.037			-3.671
185000.000			33.036			-3.671
185101.000			33.036			-3.671
185202.000			33.035			-3.671
185301.000			33.035			-3.671
185400.000			33.036			-3.671
185501.000			33.035			-3.671
185600.000			33.035			-3.671
185700.000			33.034			-3.670
185801.000			33.034			-3.670
185900.000			33.034			-3.670
186000.000			33.033			-3.670
186102.000			33.032			-3.670
186201.000			33.033			-3.670
186300.000			33.032			-3.670
186401.000			33.031			-3.670
186500.000			33.032			-3.670
186600.000			33.032			-3.670
186701.000			33.031			-3.670
186800.000			33.029			-3.670
186900.000			33.029			-3.670
187002.000			33.030			-3.670
187101.000			33.030			-3.670
187200.000			33.030			-3.670
187301.000			33.030			-3.670
187400.000			33.029			-3.670
187500.000			33.030			-3.670
187600.000			33.028			-3.670
187700.000			33.028			-3.670
187801.000			33.028			-3.670
187901.000			33.027			-3.670
188001.000			33.026			-3.670
188102.000			33.026			-3.670
188200.000			33.025			-3.669
188300.000			33.025			-3.669
188401.000			33.025			-3.669
188500.000			33.025			-3.669
188600.000			33.025			-3.669
188701.000			33.023			-3.669
188800.000			33.023			-3.669
188901.000			33.023			-3.669
189002.000			33.022			-3.669
189100.000			33.024			-3.669
189200.000			33.022			-3.669
189301.000			33.022			-3.669
189400.000			33.024			-3.669
189500.000			33.023			-3.669
189601.000			33.022			-3.669
189700.000			33.021			-3.669
189801.000			33.020			-3.669
189902.000			33.020			-3.669
190001.000			33.020			-3.669
190100.000			33.021			-3.669
190201.000			33.020			-3.669
190300.000			33.018			-3.669
190400.000			33.018			-3.669
190501.000			33.019			-3.669
190600.000			33.018			-3.669
190702.000			33.017			-3.669
190801.000			33.017			-3.669
190901.000			33.017			-3.669
191001.000			33.018			-3.669
191100.000			33.017			-3.669
191200.000			33.017			-3.669
191301.000			33.016			-3.668
191400.000			33.015			-3.668
191500.000			33.015			-3.668
191602.000			33.015			-3.668
191701.000			33.015			-3.668
191801.000			33.014			-3.668
191901.000			33.013			-3.668
192000.000			33.012			-3.668
192100.000			33.013			-3.668
192201.000			33.013			-3.668
192300.000			33.013			-3.668
192400.000			33.013			-3.668
192502.000			33.011			-3.668
192601.000			33.011			-3.668
192701.000			33.011			-3.668
192801.000			33.010			-3.668
192900.000			33.010			-3.668
193000.000			33.009			-3.668
193101.000			33.010			-3.668
193200.000			33.008			-3.668
193300.000			33.009			-3.668
193402.000			33.008			-3.668
193501.000			33.007			-3.667
193601.000			33.009			-3.668
193701.000			33.008			-3.668
193800.000			33.008			-3.668
193900.000			33.006			-3.667
194000.000			33.005			-3.667
194100.000			33.005			-3.667
194201.000			33.005			-3.667
194300.000			33.005			-3.667
194401.000			33.004			-3.667
194502.000			33.004			-3.667
194600.000			33.004			-3.667
194700.000			33.003			-3.667
194801.000			33.003			-3.667
194900.000			33.003			-3.667
195000.000			33.002			-3.667
195101.000			33.003			-3.667
195200.000			33.001			-3.667
195301.000			33.001			-3.667
195402.000			33.000			-3.667
195500.000			33.000			-3.667
195600.000			33.000			-3.667
195701.000			33.000			-3.667
195800.000			33.000			-3.667
195900.000			33.000			-3.667
196001.000			32.999			-3.667
196100.000			32.998			-3.666
196201.000			32.999			-3.667
196302.000			32.998			-3.666
196401.000			32.998			-3.666
196500.000			32.997			-3.666
196601.000			32.997			-3.666
196700.000			32.996			-3.666
196800.000			32.996			-3.666
196901.000			32.994			-3.666
197000.000			32.995			-3.666
197100.000			32.995			-3.666
197202.000			32.994			-3.666
197301.000			32.994			-3.666
197402.000			32.994			-3.666
197500.000			32.994			-3.666
197600.000			32.992			-3.666
197701.000			32.993			-3.666
197800.000			32.993			-3.666
197900.000			32.993			-3.666
198001.000			32.992			-3.666
198100.000			32.991			-3.666
198201.000			32.991			-3.666
198302.000			32.990			-3.666
198401.000			32.990			-3.666
198500.000			32.990			-3.666
198601.000			32.990			-3.666
198700.000			32.989			-3.665
198800.000			32.988			-3.665
198901.000			32.989			-3.665
199000.000			32.988			-3.665
199100.000			32.987			-3.665
199201.000			32.987			-3.665
199301.000			32.988			-3.665
199401.000			32.987			-3.665
199501.000			32.986			-3.665
199600.000			32.986			-3.665
199700.000			32.986			-3.665
199801.000			32.985			-3.665
199900.000			32.985			-3.665
200000.000			32.985			-3.665
200101.000			32.984			-3.665
200200.000			32.984			-3.665
200302.000			32.984			-3.665
200401.000			32.983			-3.665
200500.000			32.982			-3.665
200601.000			32.983			-3.665
200700.000			32.982			-3.665
200800.000			32.982			-3.665
200901.000			32.982			-3.665
201000.000			32.981			-3.665
201100.000			32.981			-3.665
201202.000			32.979			-3.664
201301.000			32.979			-3.664
201400.000			32.980			-3.664
201501.000			32.979			-3.664
201600.000			32.978			-3.664
201700.000			32.978			-3.664
201801.000			32.979			-3.664
201900.000			32.977			-3.664
202000.000			32.977			-3.664
202102.000			32.977			-3.664
202201.000			32.976			-3.664
202301.000			32.977			-3.664
202401.000			32.976			-3.664
202500.000			32.975			-3.664
202600.000			32.975			-3.664
202701.000			32.975			-3.664
202800.000			32.974			-3.664
202900.000			32.974			-3.664
203001.000			32.974			-3.664
203101.000			32.974			-3.664
203201.000			32.973			-3.664
203301.000			32.972			-3.664
203400.000			32.972			-3.664
203500.000			32.973			-3.664
203600.000			32.971			-3.663
203700.000			32.971			-3.663
203801.000			32.971			-3.663
203900.000			32.971			-3.663
204001.000			32.971			-3.663
204102.000			32.970			-3.663
204201.000			32.970			-3.663
204300.000			32.969			-3.663
204401.000			32.969			-3.663
204500.000			32.968			-3.663
204600.000			32.968			-3.663
204701.000			32.967			-3.663
204800.000			32.967			-3.663
204900.000			32.967			-3.663
205002.000			32.966			-3.663
205101.000			32.965			-3.663
205200.000			32.965			-3.663
205301.000			32.965			-3.663
205400.000			32.966			-3.663
205500.000			32.965			-3.663
205601.000			32.964			-3.663
205700.000			32.964			-3.663
205800.000			32.964			-3.663
205902.000			32.964			-3.663
206001.000			32.964			-3.663
206101.000			32.963			-3.663
206201.000			32.962			-3.662
206300.000			32.962			-3.662
206400.000			32.962			-3.662
206501.000			32.962			-3.662
206600.000			32.962			-3.662
206700.000			32.961			-3.662
206800.000			32.961			-3.662
206901.000			32.960			-3.662
207002.000			32.959			-3.662
207101.000			32.958			-3.662
207200.000			32.958			-3.662
207301.000			32.958			-3.662
207400.000			32.957			-3.662
207500.000			32.957			-3.662
207601.000			32.955			-3.662
207700.000			32.956			-3.662
207800.000			32.957			-3.662
207902.000			32.956			-3.662
208001.000			32.956			-3.662
208100.000			32.956			-3.662
208201.000			32.956			-3.662
208300.000			32.956			-3.662
208400.000			32.955			-3.662
208501.000			32.955			-3.662
208600.000			32.955			-3.662
208700.000			32.955			-3.662
208802.000			32.954			-3.662
208901.000			32.952			-3.661
209001.000			32.952			-3.661
209101.000			32.953			-3.661
209200.000			32.951			-3.661
209300.000			32.951			-3.661
209401.000			32.951			-3.661
209500.000			32.951			-3.661
209600.000			32.952			-3.661
209702.000			32.951			-3.661
209801.000			32.950			-3.661
209902.000			32.950			-3.661
210000.000			32.949			-3.661
210100.000			32.948			-3.661
210201.000			32.949			-3.661
210300.000			32.948			-3.661
210400.000			32.948			-3.661
210501.000			32.948			-3.661
210600.000			32.948			-3.661
210701.000			32.946			-3.661
210802.000			32.946			-3.661
210901.000			32.946			-3.661
211000.000			32.946			-3.661
211101.000			32.947			-3.661
211200.000			32.946			-3.661
211300.000			32.944			-3.660
211401.000			32.944			-3.660
211500.000			32.944			-3.660
211601.000			32.945			-3.661
211702.000			32.944			-3.660
211801.000			32.945			-3.661
211900.000			32.945			-3.661
212001.000			32.943			-3.660
212100.000			32.942			-3.660
212200.000			32.942			-3.660
212301.000			32.942			-3.660
212400.000			32.941			-3.660
212501.000			32.941			-3.660
212602.000			32.942			-3.660
212701.000			32.941			-3.660
212800.000			32.939			-3.660
212901.000			32.939			-3.660
213000.000			32.940			-3.660
213100.000			32.940			-3.660
213200.000			32.939			-3.660
213300.000			32.938			-3.660
213402.000			32.938			-3.660
213501.000			32.938			-3.660
213601.000			32.937			-3.660
213701.000			32.937			-3.660
213800.000			32.937			-3.660
213900.000			32.937			-3.660
214001.000			32.936			-3.660
214100.000			32.936			-3.660
214200.000			32.936			-3.660
214301.000			32.935			-3.659
214401.000			32.936			-3.660
214501.000			32.935			-3.659
214601.000			32.934			-3.659
214700.000			32.934			-3.659
214800.000			32.935			-3.659
214901.000			32.934			-3.659
215000.000			32.933			-3.659
215100.000			32.933			-3.659
215201.000			32.933			-3.659
215301.000			32.932			-3.659
215401.000			32.932			-3.659
215502.000			32.933			-3.659
215600.000			32.931			-3.659
215700.000			32.930			-3.659
215801.000			32.931			-3.659
215900.000			32.931			-3.659
216000.000			32.929			-3.659
216101.000			32.930			-3.659
216200.000			32.929			-3.659
216302.000			32.929			-3.659
216401.000			32.929			-3.659
216500.000			32.928			-3.659
216601.000			32.928			-3.659
216700.000			32.928			-3.659
216800.000			32.928			-3.659
216901.000			32.927			-3.659
217000.000			32.926			-3.658
217100.000			32.925			-3.658
217202.000			32.925			-3.658
217301.000			32.924			-3.658
217401.000			32.924			-3.658
217501.000			32.924			-3.658
217600.000			32.925			-3.658
217700.000			32.925			-3.658
217801.000			32.924			-3.658
217900.000			32.923			-3.658
218000.000			32.923			-3.658
218101.000			32.923			-3.658
218201.000			32.923			-3.658
218301.000			32.923			-3.658
218401.000			32.922			-3.658
218500.000			32.922			-3.658
218600.000			32.922			-3.658
218701.000			32.921			-3.658
218800.000			32.920			-3.658
218900.000			32.921			-3.658
219001.000			32.921			-3.658
219101.000			32.920			-3.658
219201.000			32.920			-3.658
219302.000			32.921			-3.658
219400.000			32.918			-3.658
219500.000			32.919			-3.658
219600.000			32.919			-3.658
219700.000			32.919			-3.658
219801.000			32.919			-3.658
219900.000			32.918			-3.658
220000.000			32.918			-3.658
220102.000			32.918			-3.658
220201.000			32.917			-3.657
220300.000			32.916			-3.657
220401.000			32.915			-3.657
220500.000			32.914			-3.657
220600.000			32.915			-3.657
220701.000			32.916			-3.657
220800.000			32.915			-3.657
220900.000			32.915			-3.657
221002.000			32.914			-3.657
221101.000			32.914			-3.657
221200.000			32.913			-3.657
221301.000			32.912			-3.657
221400.000			32.913			-3.657
221500.000			32.913			-3.657
221601.000			32.912			-3.657
221700.000			32.912			-3.657
221800.000			32.912			-3.657
221902.000			32.912			-3.657
222001.000			32.912			-3.657
222100.000			32.911			-3.657
222201.000			32.910			-3.657
222300.000			32.910			-3.657
222400.000			32.910			-3.657
222501.000			32.910			-3.657
222600.000			32.909			-3.657
222700.000			32.908			-3.656
222802.000			32.909			-3.657
222901.000			32.908			-3.656
223001.000			32.907			-3.656
223100.000			32.907			-3.656
223200.000			32.907			-3.656
223301.000			32.908			-3.656
223400.000			32.907			-3.656
223500.000			32.906			-3.656
223601.000			32.907			-3.656
223701.000			32.907			-3.656
223801.000			32.905			-3.656
223901.000			32.905			-3.656
224000.000			32.905			-3.656
224100.000			32.905			-3.656
224201.000			32.905			-3.656
224300.000			32.905			-3.656
224400.000			32.903			-3.656
224501.000			32.903			-3.656
224601.000			32.904			-3.656
224701.000			32.904			-3.656
224801.000			32.902			-3.656
224900.000			32.902			-3.656
225000.000			32.902			-3.656
225101.000			32.901			-3.656
225200.000			32.901			-3.656
225300.000			32.901			-3.656
225401.000			32.901			-3.656
225501.000			32.901			-3.656
225601.000			32.900			-3.656
225702.000			32.898			-3.655
225800.000			32.899			-3.655
225900.000			32.900			-3.656
226000.000			32.901			-3.656
226100.000			32.899			-3.655
226201.000			32.898			-3.655
226300.000			32.898			-3.655
226400.000			32.898			-3.655
226502.000			32.897			-3.655
226601.000			32.897			-3.655
226700.000			32.897			-3.655
226801.000			32.897			-3.655
226900.000			32.896			-3.655
227000.000			32.896			-3.655
227101.000			32.895			-3.655
227200.000			32.896			-3.655
227300.000			32.896			-3.655
227401.000			32.896			-3.655
227501.000			32.895			-3.655
227601.000			32.894			-3.655
227701.000			32.894			-3.655
227800.000			32.893			-3.655
227900.000			32.893			-3.655
228001.000			32.893			-3.655
228100.000			32.892			-3.655
228200.000			32.892			-3.655
228301.000			32.892			-3.655
228401.000			32.891			-3.655
228501.000			32.891			-3.655
228602.000			32.891			-3.655
228700.000			32.891			-3.655
228800.000			32.892			-3.655
228901.000			32.891			-3.655
229000.000			32.890			-3.654
229100.000			32.889			-3.654
229200.000			32.889			-3.654
229300.000			32.890			-3.654
229402.000			32.890			-3.654
229501.000			32.889			-3.654
229601.000			32.888			-3.654
229701.000			32.889			-3.654
229800.000			32.889			-3.654
229900.000			32.888			-3.654
230001.000			32.887			-3.654
230100.000			32.886			-3.654
230200.000			32.886			-3.654
230301.000			32.887			-3.654
230401.000			32.886			-3.654
230501.000			32.886			-3.654
230602.000			32.886			-3.654
230700.000			32.886			-3.654
230800.000			32.885			-3.654
230901.000			32.885			-3.654
231000.000			32.884			-3.654
231100.000			32.884			-3.654
231201.000			32.883			-3.654
231300.000			32.884			-3.654
231401.000			32.884			-3.654
231502.000			32.883			-3.654
231600.000			32.883			-3.654
231700.000			32.882			-3.654
231801.000			32.883			-3.654
231900.000			32.882			-3.654
232000.000			32.882			-3.654
232101.000			32.882			-3.654
232200.000			32.882			-3.654
232302.000			32.881			-3.653
232401.000			32.881			-3.653
232501.000			32.880			-3.653
232601.000			32.880			-3.653
232700.000			32.879			-3.653
232800.000			32.878			-3.653
232901.000			32.878			-3.653
233000.000			32.878			-3.653
233100.000			32.878			-3.653
233201.000			32.877			-3.653
233301.000			32.877			-3.653
233401.000			32.877			-3.653
233501.000			32.876			-3.653
233600.000			32.877			-3.653
233700.000			32.877			-3.653
233801.000			32.876			-3.653
233900.000			32.876			-3.653
234000.000			32.875			-3.653
234101.000			32.874			-3.653
234201.000			32.874			-3.653
234301.000			32.874			-3.653
234402.000			32.874			-3.653
234500.000			32.874			-3.653
234600.000			32.874			-3.653
234701.000			32.873			-3.653
234800.000			32.873			-3.653
234900.000			32.872			-3.652
235001.000			32.872			-3.652
235100.000			32.873			-3.653
235201.000			32.871			-3.652
235302.000			32.870			-3.652
235400.000			32.871			-3.652
235500.000			32.871			-3.652
235600.000			32.870			-3.652
235700.000			32.869			-3.652
235801.000			32.870			-3.652
235900.000			32.871			-3.652
236000.000			32.871			-3.652
236102.000			32.869			-3.652
236201.000			32.869			-3.652
236301.000			32.868			-3.652
236401.000			32.868			-3.652
236500.000			32.868			-3.652
236600.000			32.867			-3.652
236701.000			32.867			-3.652
236800.000			32.868			-3.652
236900.000			32.866			-3.652
237001.000			32.866			-3.652
237101.000			32.866			-3.652
237201.000			32.866			-3.652
237302.000			32.866			-3.652
237400.000			32.865			-3.652
237500.000			32.865			-3.652
237601.000			32.864			-3.652
237700.000			32.864			-3.652
237800.000			32.864			-3.652
237901.000			32.863			-3.651
238000.000			32.864			-3.652
238101.000			32.864			-3.652
238202.000			32.862			-3.651
238300.000			32.861			-3.651
238400.000			32.861			-3.651
238501.000			32.861			-3.651
238600.000			32.861			-3.651
238700.000			32.861			-3.651
238800.000			32.861			-3.651
238900.000			32.862			-3.651
239002.000			32.860			-3.651
239101.000			32.860			-3.651
239201.000			32.860			-3.651
239301.000			32.860			-3.651
239400.000			32.860			-3.651
239500.000			32.861			-3.651
239601.000			32.860			-3.651
239700.000			32.859			-3.651
239800.000			32.858			-3.651
239901.000			32.858			-3.651
240001.000			32.858			-3.651
240101.000			32.858			-3.651
240202.000			32.857			-3.651
240300.000			32.856			-3.651
240400.000			32.856			-3.651
240501.000			32.857			-3.651
240600.000			32.856			-3.651
240700.000			32.855			-3.651
240801.000			32.855			-3.651
240900.000			32.856			-3.651
241001.000			32.856			-3.651
241102.000			32.855			-3.651
241200.000			32.855			-3.651
241300.000			32.854			-3.650
241401.000			32.853			-3.650
241500.000			32.854			-3.650
241600.000			32.854			-3.650
241701.000			32.853			-3.650
241800.000			32.853			-3.650
241902.000			32.852			-3.650
242001.000			32.852			-3.650
242100.000			32.853			-3.650
242201.000			32.853			-3.650
242300.000			32.852			-3.650
242400.000			32.851			-3.650
242501.000			32.851			-3.650
242600.000			32.852			-3.650
242700.000			32.850			-3.650
242802.000			32.851			-3.650
242901.000			32.852			-3.650
243001.000			32.851			-3.650
243101.000			32.850			-3.650
243200.000			32.850			-3.650
243300.000			32.850			-3.650
243401.000			32.849			-3.650
243500.000			32.849			-3.650
243600.000			32.848			-3.650
243702.000			32.848			-3.650
243801.000			32.848			-3.650
243901.000			32.848			-3.650
244001.000			32.848			-3.650
244100.000			32.846			-3.650
244200.000			32.846			-3.650
244301.000			32.846			-3.650
244400.000			32.845			-3.649
244500.000			32.846			-3.650
244601.000			32.845			-3.649
244701.000			32.845			-3.649
244801.000			32.845			-3.649
244901.000			32.845			-3.649
245000.000			32.845			-3.649
245100.000			32.845			-3.649
245200.000			32.845			-3.649
245300.000			32.844			-3.649
245401.000			32.844			-3.649
245500.000			32.845			-3.649
245601.000			32.843			-3.649
245702.000			32.844			-3.649
245801.000			32.843			-3.649
245900.000			32.842			-3.649
246001.000			32.843			-3.649
246100.000			32.842			-3.649
246200.000			32.842			-3.649
246301.000			32.841			-3.649
246400.000			32.841			-3.649
246500.000			32.842			-3.649
246602.000			32.841			-3.649
246701.000			32.841			-3.649
246800.000			32.841			-3.649
246901.000			32.842			-3.649
247000.000			32.840			-3.649
247100.000			32.840			-3.649
247201.000			32.839			-3.649
247300.000			32.840			-3.649
247400.000			32.839			-3.649
247502.000			32.839			-3.649
247601.000			32.840			-3.649
247701.000			32.838			-3.649
247801.000			32.838			-3.649
247900.000			32.838			-3.649
248000.000			32.838			-3.649
248101.000			32.838			-3.649
248200.000			32.837			-3.649
248300.000			32.836			-3.648
248400.000			32.836			-3.648
248501.000			32.834			-3.648
248602.000			32.835			-3.648
248701.000			32.836			-3.648
248800.000			32.835			-3.648
248901.000			32.834			-3.648
249000.000			32.834			-3.648
249100.000			32.835			-3.648
249201.000			32.834			-3.648
249300.000			32.834			-3.648
249400.000			32.833			-3.648
249502.000			32.833			-3.648
249601.000			32.832			-3.648
249700.000			32.832			-3.648
249801.000			32.832			-3.648
249900.000			32.831			-3.648
250000.000			32.831			-3.648
250101.000			32.832			-3.648
250200.000			32.832			-3.648
250300.000			32.831			-3.648
250402.000			32.830			-3.648
250501.000			32.830			-3.648
250600.000			32.830			-3.648
250701.000			32.830			-3.648
250800.000			32.828			-3.648
250900.000			32.829			-3.648
251001.000			32.830			-3.648
251100.000			32.830			-3.648
251200.000			32.829			-3.648
251302.000			32.829			-3.648
251401.000			32.828			-3.648
251502.000			32.828			-3.648
251600.000			32.828			-3.648
251700.000			32.827			-3.647
251801.000			32.826			-3.647
251900.000			32.826			-3.647
252000.000			32.827			-3.647
252101.000			32.827			-3.647
252200.000			32.827			-3.647
252301.000			32.826			-3.647
252402.000			32.826			-3.647
252500.000			32.826			-3.647
252600.000			32.826			-3.647
252701.000			32.825			-3.647
252800.000			32.824			-3.647
252900.000			32.825			-3.647
253001.000			32.825			-3.647
253100.000			32.825			-3.647
253201.000			32.825			-3.647
253302.000			32.824			-3.647
253401.000			32.823			-3.647
253500.000			32.823			-3.647
253601.000			32.822			-3.647
253700.000			32.822			-3.647
253800.000			32.821			-3.647
253901.000			32.821			-3.647
254000.000			32.821			-3.647
254101.000			32.822			-3.647
254202.000			32.821			-3.647
254301.000			32.820			-3.647
254400.000			32.821			-3.647
254501.000			32.821			-3.647
254600.000			32.820			-3.647
254700.000			32.819			-3.647
254800.000			32.819			-3.647
254900.000			32.818			-3.646
255001.000			32.818			-3.646
255101.000			32.818			-3.646
255201.000			32.818			-3.646
255301.000			32.818			-3.646
255400.000			32.817			-3.646
255500.000			32.817			-3.646
255601.000			32.816			-3.646
255700.000			32.816			-3.646
255800.000			32.816			-3.646
255901.000			32.815			-3.646
256001.000			32.816			-3.646
256101.000			32.816			-3.646
256202.000			32.816			-3.646
256300.000			32.816			-3.646
256400.000			32.816			-3.646
256501.000			32.815			-3.646
256600.000			32.814			-3.646
256700.000			32.814			-3.646
256801.000			32.815			-3.646
256900.000			32.815			-3.646
257001.000			32.813			-3.646
257102.000			32.812			-3.646
257201.000			32.812			-3.646
257300.000			32.813			-3.646
257401.000			32.813			-3.646
257500.000			32.812			-3.646
257600.000			32.812			-3.646
257701.000			32.813			-3.646
257800.000			32.813			-3.646
257900.000			32.811			-3.646
258002.000			32.811			-3.646
258101.000			32.810			-3.646
258201.000			32.811			-3.646
258300.000			32.810			-3.646
258400.000			32.810			-3.646
258501.000			32.810			-3.646
258600.000			32.809			-3.645
258700.000			32.809			-3.645
258801.000			32.808			-3.645
258901.000			32.808			-3.645
259001.000			32.809			-3.645
259102.000			32.808			-3.645
259200.000			32.806			-3.645
259300.000			32.807			-3.645
259401.000			32.808			-3.645
259500.000			32.806			-3.645
259600.000			32.805			-3.645
259701.000			32.805			-3.645
259800.000			32.806			-3.645
259901.000			32.806			-3.645
260002.000			32.806			-3.645
260101.000			32.804			-3.645
260200.000			32.804			-3.645
260301.000			32.804			-3.645
260400.000			32.804			-3.645
260500.000			32.804			-3.645
260601.000			32.804			-3.645
260700.000			32.804			-3.645
260801.000			32.803			-3.645
260902.000			32.803			-3.645
261001.000			32.803			-3.645
261100.000			32.802			-3.645
261200.000			32.802			-3.645
261300.000			32.802			-3.645
261401.000			32.802			-3.645
261500.000			32.801			-3.645
261600.000			32.801			-3.645
261702.000			32.800			-3.644
261801.000			32.801			-3.645
261901.000			32.801			-3.645
262001.000			32.800			-3.644
262100.000			32.800			-3.644
262200.000			32.799			-3.644
262301.000			32.799			-3.644
262400.000			32.798			-3.644
262500.000			32.798			-3.644
262601.000			32.799			-3.644
262701.000			32.798			-3.644
262801.000			32.798			-3.644
262901.000			32.797			-3.644
263000.000			32.796			-3.644
263100.000			32.796			-3.644
263201.000			32.795			-3.644
263300.000			32.796			-3.644
263400.000			32.795			-3.644
263501.000			32.795			-3.644
263600.000			32.795			-3.644
263701.000			32.794			-3.644
263802.000			32.795			-3.644
263900.000			32.794			-3.644
264000.000			32.794			-3.644
264101.000			32.793			-3.644
264200.000			32.793			-3.644
264300.000			32.793			-3.644
264400.000			32.794			-3.644
264500.000			32.792			-3.644
264602.000			32.792			-3.644
264701.000			32.793			-3.644
264801.000			32.792			-3.644
264901.000			32.792			-3.644
265000.000			32.791			-3.643
265100.000			32.790			-3.643
265201.000			32.790			-3.643
265300.000			32.790			-3.643
265400.000			32.791			-3.643
265501.000			32.790			-3.643
265601.000			32.789			-3.643
265701.000			32.789			-3.643
265802.000			32.789			-3.643
265900.000			32.788			-3.643
266000.000			32.788			-3.643
266101.000			32.788			-3.643
266200.000			32.788			-3.643
266300.000			32.788			-3.643
266401.000			32.787			-3.643
266500.000			32.786			-3.643
266601.000			32.787			-3.643
266702.000			32.786			-3.643
266801.000			32.786			-3.643
266900.000			32.786			-3.643
267001.000			32.785			-3.643
267100.000			32.785			-3.643
267200.000			32.785			-3.643
267301.000			32.785			-3.643
267400.000			32.784			-3.643
267500.000			32.784			-3.643
267602.000			32.782			-3.642
267701.000			32.783			-3.643
267801.000			32.784			-3.643
267900.000			32.783			-3.643
268000.000			32.783			-3.643
268101.000			32.782			-3.642
268200.000			32.782			-3.642
268300.000			32.781			-3.642
268401.000			32.782			-3.642
268501.000			32.782			-3.642
268601.000			32.782			-3.642
268702.000			32.781			-3.642
268800.000			32.781			-3.642
268900.000			32.780			-3.642
269001.000			32.781			-3.642
269100.000			32.781			-3.642
269200.000			32.781			-3.642
269301.000			32.779			-3.642
269400.000			32.780			-3.642
269501.000			32.780			-3.642
269602.000			32.780			-3.642
269701.000			32.780			-3.642
269800.000			32.779			-3.642
269901.000			32.779			-3.642
270000.000			32.778			-3.642
270100.000			32.777			-3.642
270201.000			32.777			-3.642
270300.000			32.776			-3.642
270400.000			32.776			-3.642
270502.000			32.777			-3.642
270601.000			32.777			-3.642
270700.000			32.776			-3.642
270800.000			32.776			-3.642
270900.000			32.776			-3.642
271001.000			32.776			-3.642
271100.000			32.775			-3.642
271200.000			32.775			-3.642
271301.000			32.775			-3.642
271401.000			32.774			-3.642
271501.000			32.773			-3.641
271602.000			32.773			-3.641
271700.000			32.773			-3.641
271800.000			32.772			-3.641
271901.000			32.772			-3.641
272000.000			32.772			-3.641
272100.000			32.773			-3.641
272201.000			32.773			-3.641
272300.000			32.773			-3.641
272401.000			32.772			-3.641
272502.000			32.772			-3.641
272600.000			32.771			-3.641
272700.000			32.770			-3.641
272801.000			32.770			-3.641
272900.000			32.770			-3.641
273000.000			32.770			-3.641
273101.000			32.770			-3.641
273200.000			32.769			-3.641
273301.000			32.769			-3.641
273402.000			32.769			-3.641
273501.000			32.770			-3.641
273600.000			32.769			-3.641
273701.000			32.768			-3.641
273800.000			32.768			-3.641
273900.000			32.767			-3.641
274000.000			32.767			-3.641
274100.000			32.767			-3.641
274201.000			32.767			-3.641
274301.000			32.767			-3.641
274401.000			32.767			-3.641
274502.000			32.767			-3.641
274600.000			32.766			-3.641
274700.000			32.767			-3.641
274801.000			32.766			-3.641
274900.000			32.765			-3.641
275000.000			32.764			-3.640
275101.000			32.765			-3.641
275200.000			32.766			-3.641
275301.000			32.764			-3.640
275402.000			32.764			-3.640
275500.000			32.764			-3.640
275600.000			32.763			-3.640
275701.000			32.763			-3.640
275800.000			32.762			-3.640
275900.000			32.762			-3.640
276001.000			32.762			-3.640
276100.000			32.762			-3.640
276201.000			32.762			-3.640
276302.000			32.762			-3.640
276401.000			32.762			-3.640
276500.000			32.761			-3.640
276601.000			32.761			-3.640
276700.000			32.760			-3.640
276800.000			32.760			-3.640
276901.000			32.759			-3.640
277000.000			32.760			-3.640
277100.000			32.761			-3.640
277202.000			32.760			-3.640
277301.000			32.759			-3.640
277401.000			32.759			-3.640
277500.000			32.759			-3.640
277600.000			32.758			-3.640
277701.000			32.758			-3.640
277800.000			32.758			-3.640
277900.000			32.759			-3.640
278001.000			32.759			-3.640
278101.000			32.757			-3.640
278201.000			32.758			-3.640
278302.000			32.757			-3.640
278400.000			32.757			-3.640
278500.000			32.757			-3.640
278601.000			32.757			-3.640
278700.000			32.756			-3.640
278800.000			32.757			-3.640
278901.000			32.756			-3.640
279000.000			32.755			-3.639
279100.000			32.754			-3.639
279202.000			32.754			-3.639
279301.000			32.754			-3.639
279400.000			32.754			-3.639
279501.000			32.755			-3.639
279600.000			32.754			-3.639
279700.000			32.754			-3.639
279801.000			32.754			-3.639
279900.000			32.754			-3.639
280000.000			32.754			-3.639
280102.000			32.754			-3.639
280201.000			32.753			-3.639
280302.000			32.753			-3.639
280400.000			32.753			-3.639
280500.000			32.751			-3.639
280601.000			32.752			-3.639
280700.000			32.752			-3.639
280800.000			32.751			-3.639
280901.000			32.752			-3.639
281001.000			32.752			-3.639
281101.000			32.750			-3.639
281202.000			32.750			-3.639
281300.000			32.750			-3.639
281400.000			32.750			-3.639
281501.000			32.749			-3.639
281600.000			32.749			-3.639
281700.000			32.749			-3.639
281801.000			32.748			-3.639
281900.000			32.748			-3.639
282001.000			32.747			-3.639
282102.000			32.748			-3.639
282201.000			32.747			-3.639
282300.000			32.747			-3.639
282401.000			32.747			-3.639
282500.000			32.748			-3.639
282600.000			32.747			-3.639
282701.000			32.745			-3.638
282800.000			32.746			-3.638
282900.000			32.747			-3.639
283002.000			32.747			-3.639
283101.000			32.746			-3.638
283200.000			32.745			-3.638
283301.000			32.746			-3.638
283400.000			32.745			-3.638
283500.000			32.744			-3.638
283600.000			32.744			-3.638
283700.000			32.743			-3.638
283801.000			32.744			-3.638
283901.000			32.743			-3.638
284001.000			32.744			-3.638
284102.000			32.743			-3.638
284200.000			32.743			-3.638
284300.000			32.742			-3.638
284401.000			32.742			-3.638
284500.000			32.741			-3.638
284600.000			32.741			-3.638
284701.000			32.742			-3.638
284800.000			32.740			-3.638
284901.000			32.741			-3.638
285002.000			32.741			-3.638
285100.000			32.740			-3.638
285200.000			32.741			-3.638
285301.000			32.741			-3.638
285400.000			32.740			-3.638
285500.000			32.740			-3.638
285601.000			32.739			-3.638
285700.000			32.738			-3.638
285801.000			32.738			-3.638
285902.000			32.738			-3.638
286001.000			32.739			-3.638
286100.000			32.738			-3.638
286201.000			32.738			-3.638
286300.000			32.739			-3.638
286400.000			32.738			-3.638
286501.000			32.738			-3.638
286600.000			32.738			-3.638
286700.000			32.737			-3.637
286802.000			32.737			-3.637
286901.000			32.737			-3.637
287002.000			32.736			-3.637
287100.000			32.736			-3.637
287200.000			32.736			-3.637
287301.000			32.736			-3.637
287400.000			32.736			-3.637
287500.000			32.736			-3.637
287601.000			32.735			-3.637
287700.000			32.735			-3.637
287801.000			32.735			-3.637
287902.000			32.734			-3.637
288001.000			32.734			-3.637
288100.000			32.734			-3.637
288201.000			32.733			-3.637
288300.000			32.734			-3.637
288400.000			32.733			-3.637
288501.000			32.733			-3.637
288600.000			32.732			-3.637
288700.000			32.732			-3.637
288802.000			32.733			-3.637
288901.000			32.732			-3.637
289000.000			32.732			-3.637
289101.000			32.732			-3.637
289200.000			32.731			-3.637
289300.000			32.731			-3.637
289401.000			32.732			-3.637
289500.000			32.732			-3.637
289600.000			32.731			-3.637
289702.000			32.730			-3.637
289801.000			32.730			-3.637
289902.000			32.729			-3.637
290000.000			32.729			-3.637
290100.000			32.730			-3.637
290201.000			32.730			-3.637
290300.000			32.729			-3.637
290400.000			32.728			-3.636
290501.000			32.728			-3.636
290600.000			32.728			-3.636
290701.000			32.728			-3.636
290802.000			32.728			-3.636
290901.000			32.728			-3.636
291000.000			32.727			-3.636
291101.000			32.727			-3.636
291200.000			32.727			-3.636
291300.000			32.727			-3.636
291401.000			32.725			-3.636
291500.000			32.725			-3.636
291601.000			32.726			-3.636
291702.000			32.726			-3.636
291801.000			32.725			-3.636
291900.000			32.725			-3.636
292001.000			32.724			-3.636
292100.000			32.724			-3.636
292200.000			32.724			-3.636
292301.000			32.725			-3.636
292400.000			32.725			-3.636
292500.000			32.724			-3.636
292602.000			32.723			-3.636
292701.000			32.722			-3.636
292800.000			32.722			-3.636
292901.000			32.721			-3.636
293000.000			32.721			-3.636
293100.000			32.721			-3.636
293200.000			32.721			-3.636
293300.000			32.722			-3.636
293401.000			32.722			-3.636
293501.000			32.722			-3.636
293601.000			32.721			-3.636
293701.000			32.720			-3.636
293800.000			32.720			-3.636
293900.000			32.720			-3.636
294001.000			32.719			-3.635
294100.000			32.719			-3.635
294200.000			32.719			-3.635
294301.000			32.718			-3.635
294401.000			32.718			-3.635
294501.000			32.717			-3.635
294602.000			32.717			-3.635
294700.000			32.717			-3.635
294800.000			32.717			-3.635
294901.000			32.717			-3.635
295000.000			32.717			-3.635
295100.000			32.717			-3.635
295201.000			32.718			-3.635
295300.000			32.717			-3.635
295401.000			32.716			-3.635
295502.000			32.715			-3.635
295600.000			32.716			-3.635
295700.000			32.716			-3.635
295801.000			32.714			-3.635
295900.000			32.715			-3.635
296000.000			32.715			-3.635
296101.000			32.715			-3.635
296200.000			32.715			-3.635
296302.000			32.714			-3.635
296401.000			32.712			-3.635
296501.000			32.713			-3.635
296601.000			32.713			-3.635
296700.000			32.712			-3.635
296800.000			32.712			-3.635
296901.000			32.713			-3.635
297000.000			32.712			-3.635
297100.000			32.712			-3.635
297201.000			32.711			-3.635
297301.000			32.711			-3.635
297401.000			32.711			-3.635
297501.000			32.711			-3.635
297600.000			32.710			-3.634
297700.000			32.710			-3.634
297801.000			32.710			-3.634
297900.000			32.710			-3.634
298000.000			32.710			-3.634
298101.000			32.710			-3.634
298201.000			32.709			-3.634
298301.000			32.709			-3.634
298402.000			32.709			-3.634
298500.000			32.708			-3.634
298600.000			32.708			-3.634
298701.000			32.708			-3.634
298800.000			32.708			-3.634
298900.000			32.707			-3.634
299001.000			32.708			-3.634
299100.000			32.707			-3.634
299201.000			32.707			-3.634
299302.000			32.707			-3.634
299401.000			32.707			-3.634
299500.000			32.706			-3.634
299600.000			32.706			-3.634
299700.000			32.705			-3.634
299801.000			32.704			-3.634
299900.000			32.705			-3.634
