# Acquired on 29/01/2024 11:03:39 
# SPIDER: Creep_7mm_HM077x145x38AA-1
# CREEP MEASUREMENT

# time [ms]		force [N]		stiffness [N/mm]
0.000			-36.049			-5.150
104.000			-38.074			-5.439
204.000			-38.137			-5.448
305.000			-38.034			-5.433
404.000			-37.946			-5.421
504.000			-37.876			-5.411
604.000			-37.813			-5.402
704.000			-37.758			-5.394
804.000			-37.667			-5.381
905.000			-37.628			-5.375
1004.000			-37.592			-5.370
1104.000			-37.557			-5.365
1205.000			-37.524			-5.361
1303.000			-37.496			-5.357
1404.000			-37.467			-5.352
1505.000			-37.416			-5.345
1604.000			-37.391			-5.342
1704.000			-37.368			-5.338
1804.000			-37.345			-5.335
1904.000			-37.324			-5.332
2004.000			-37.304			-5.329
2105.000			-37.285			-5.326
2204.000			-37.248			-5.321
2304.000			-37.230			-5.319
2405.000			-37.214			-5.316
2503.000			-37.197			-5.314
2604.000			-37.181			-5.312
2705.000			-37.167			-5.310
2804.000			-37.152			-5.307
2905.000			-37.123			-5.303
3004.000			-37.109			-5.301
3104.000			-37.095			-5.299
3204.000			-37.081			-5.297
3304.000			-37.069			-5.296
3404.000			-37.057			-5.294
3505.000			-37.045			-5.292
3604.000			-37.033			-5.290
3703.000			-37.011			-5.287
3805.000			-37.000			-5.286
3904.000			-36.989			-5.284
4004.000			-36.978			-5.283
4105.000			-36.968			-5.281
4204.000			-36.958			-5.280
4304.000			-36.947			-5.278
4404.000			-36.928			-5.275
4504.000			-36.917			-5.274
4604.000			-36.908			-5.273
4705.000			-36.900			-5.271
4804.000			-36.890			-5.270
4904.000			-36.881			-5.269
5005.000			-36.872			-5.267
5103.000			-36.855			-5.265
5204.000			-36.847			-5.264
5305.000			-36.839			-5.263
5404.000			-36.831			-5.262
5504.000			-36.822			-5.260
5604.000			-36.814			-5.259
5704.000			-36.807			-5.258
5804.000			-36.792			-5.256
5905.000			-36.784			-5.255
6004.000			-36.777			-5.254
6105.000			-36.771			-5.253
6204.000			-36.763			-5.252
6303.000			-36.755			-5.251
6405.000			-36.748			-5.250
6504.000			-36.741			-5.249
6604.000			-36.728			-5.247
6705.000			-36.722			-5.246
6804.000			-36.715			-5.245
6904.000			-36.709			-5.244
7004.000			-36.703			-5.243
7104.000			-36.696			-5.242
7204.000			-36.690			-5.241
7305.000			-36.676			-5.239
7404.000			-36.670			-5.239
7504.000			-36.664			-5.238
7605.000			-36.659			-5.237
7703.000			-36.653			-5.236
7804.000			-36.647			-5.235
7905.000			-36.641			-5.234
8004.000			-36.631			-5.233
8104.000			-36.626			-5.232
8204.000			-36.620			-5.231
8304.000			-36.614			-5.231
8404.000			-36.609			-5.230
8505.000			-36.603			-5.229
8604.000			-36.598			-5.228
8704.000			-36.587			-5.227
8805.000			-36.582			-5.226
8903.000			-36.578			-5.225
9004.000			-36.573			-5.225
9105.000			-36.566			-5.224
9204.000			-36.561			-5.223
9305.000			-36.557			-5.222
9404.000			-36.553			-5.222
9504.000			-36.542			-5.220
9604.000			-36.537			-5.220
9704.000			-36.532			-5.219
9804.000			-36.527			-5.218
9905.000			-36.523			-5.218
10004.000			-36.519			-5.217
10104.000			-36.516			-5.217
10205.000			-36.505			-5.215
10303.000			-36.500			-5.214
10404.000			-36.496			-5.214
10505.000			-36.493			-5.213
10604.000			-36.488			-5.213
10704.000			-36.484			-5.212
10804.000			-36.479			-5.211
10904.000			-36.471			-5.210
11003.000			-36.467			-5.210
11105.000			-36.462			-5.209
11204.000			-36.458			-5.208
11304.000			-36.455			-5.208
11405.000			-36.451			-5.207
11503.000			-36.446			-5.207
11604.000			-36.438			-5.205
11705.000			-36.435			-5.205
11804.000			-36.432			-5.205
11904.000			-36.427			-5.204
12005.000			-36.423			-5.203
12104.000			-36.419			-5.203
12203.000			-36.415			-5.202
12305.000			-36.411			-5.202
12404.000			-36.403			-5.200
12505.000			-36.400			-5.200
12604.000			-36.396			-5.199
12704.000			-36.392			-5.199
12805.000			-36.389			-5.198
12903.000			-36.385			-5.198
13004.000			-36.381			-5.197
13105.000			-36.374			-5.196
13204.000			-36.372			-5.196
13304.000			-36.368			-5.195
13404.000			-36.364			-5.195
13504.000			-36.361			-5.194
13604.000			-36.358			-5.194
13705.000			-36.354			-5.193
13804.000			-36.347			-5.192
13904.000			-36.344			-5.192
14005.000			-36.341			-5.192
14103.000			-36.337			-5.191
14204.000			-36.334			-5.191
14305.000			-36.330			-5.190
14404.000			-36.327			-5.190
14504.000			-36.320			-5.189
14605.000			-36.317			-5.188
14704.000			-36.314			-5.188
14803.000			-36.311			-5.187
14905.000			-36.307			-5.187
15004.000			-36.305			-5.186
15104.000			-36.302			-5.186
15205.000			-36.299			-5.186
15304.000			-36.293			-5.185
15404.000			-36.290			-5.184
15504.000			-36.286			-5.184
15604.000			-36.283			-5.183
15705.000			-36.281			-5.183
15804.000			-36.278			-5.183
15904.000			-36.274			-5.182
16005.000			-36.268			-5.181
16104.000			-36.265			-5.181
16203.000			-36.262			-5.180
16305.000			-36.259			-5.180
16404.000			-36.256			-5.179
16504.000			-36.253			-5.179
16605.000			-36.251			-5.179
16704.000			-36.246			-5.178
16804.000			-36.243			-5.178
16904.000			-36.239			-5.177
17004.000			-36.237			-5.177
17104.000			-36.234			-5.176
17205.000			-36.231			-5.176
17304.000			-36.229			-5.176
17403.000			-36.225			-5.175
17505.000			-36.220			-5.174
17604.000			-36.217			-5.174
17704.000			-36.214			-5.173
17805.000			-36.211			-5.173
17904.000			-36.209			-5.173
18004.000			-36.207			-5.172
18104.000			-36.204			-5.172
18204.000			-36.198			-5.171
18304.000			-36.195			-5.171
18405.000			-36.194			-5.171
18504.000			-36.191			-5.170
18604.000			-36.188			-5.170
18705.000			-36.185			-5.169
18803.000			-36.183			-5.169
18905.000			-36.179			-5.168
19004.000			-36.176			-5.168
19104.000			-36.174			-5.168
19205.000			-36.171			-5.167
19304.000			-36.168			-5.167
19404.000			-36.166			-5.167
19504.000			-36.164			-5.166
19604.000			-36.158			-5.165
19703.000			-36.156			-5.165
19805.000			-36.154			-5.165
19904.000			-36.152			-5.165
20004.000			-36.149			-5.164
20105.000			-36.147			-5.164
20203.000			-36.144			-5.163
20304.000			-36.142			-5.163
20405.000			-36.136			-5.162
20504.000			-36.134			-5.162
20604.000			-36.132			-5.162
20705.000			-36.130			-5.161
20804.000			-36.127			-5.161
20903.000			-36.124			-5.161
21005.000			-36.123			-5.160
21104.000			-36.118			-5.160
21204.000			-36.116			-5.159
21305.000			-36.115			-5.159
21404.000			-36.112			-5.159
21504.000			-36.110			-5.159
21604.000			-36.109			-5.158
21704.000			-36.106			-5.158
21804.000			-36.101			-5.157
21905.000			-36.099			-5.157
22004.000			-36.097			-5.157
22103.000			-36.094			-5.156
22204.000			-36.092			-5.156
22304.000			-36.090			-5.156
22405.000			-36.086			-5.155
22504.000			-36.083			-5.155
22604.000			-36.080			-5.154
22705.000			-36.078			-5.154
22803.000			-36.077			-5.154
22904.000			-36.075			-5.154
23005.000			-36.073			-5.153
23104.000			-36.070			-5.153
23204.000			-36.067			-5.152
23305.000			-36.064			-5.152
23404.000			-36.062			-5.152
23503.000			-36.060			-5.151
23605.000			-36.058			-5.151
23704.000			-36.055			-5.151
23804.000			-36.053			-5.150
23905.000			-36.052			-5.150
24004.000			-36.047			-5.150
24104.000			-36.045			-5.149
24204.000			-36.043			-5.149
24304.000			-36.042			-5.149
24404.000			-36.040			-5.149
24505.000			-36.037			-5.148
24604.000			-36.035			-5.148
24703.000			-36.032			-5.147
24805.000			-36.030			-5.147
24904.000			-36.028			-5.147
25004.000			-36.026			-5.147
25105.000			-36.024			-5.146
25204.000			-36.022			-5.146
25305.000			-36.021			-5.146
25403.000			-36.017			-5.145
25504.000			-36.015			-5.145
25605.000			-36.012			-5.145
25704.000			-36.010			-5.144
25804.000			-36.008			-5.144
25905.000			-36.007			-5.144
26004.000			-36.005			-5.144
26103.000			-36.004			-5.143
26205.000			-36.001			-5.143
26304.000			-35.998			-5.143
26404.000			-35.995			-5.142
26505.000			-35.994			-5.142
26604.000			-35.992			-5.142
26704.000			-35.990			-5.141
26804.000			-35.988			-5.141
26904.000			-35.985			-5.141
27004.000			-35.982			-5.140
27105.000			-35.981			-5.140
27204.000			-35.980			-5.140
27304.000			-35.977			-5.140
27405.000			-35.975			-5.139
27503.000			-35.974			-5.139
27604.000			-35.969			-5.138
27705.000			-35.968			-5.138
27804.000			-35.967			-5.138
27904.000			-35.966			-5.138
28005.000			-35.963			-5.138
28104.000			-35.962			-5.137
28203.000			-35.960			-5.137
28305.000			-35.956			-5.137
28404.000			-35.954			-5.136
28505.000			-35.952			-5.136
28604.000			-35.951			-5.136
28704.000			-35.950			-5.136
28805.000			-35.947			-5.135
28903.000			-35.944			-5.135
29004.000			-35.943			-5.135
29105.000			-35.941			-5.134
29204.000			-35.940			-5.134
29304.000			-35.937			-5.134
29405.000			-35.936			-5.134
29504.000			-35.934			-5.133
29603.000			-35.932			-5.133
29705.000			-35.931			-5.133
29804.000			-35.927			-5.132
29904.000			-35.925			-5.132
30005.000			-35.923			-5.132
30104.000			-35.922			-5.132
30204.000			-35.920			-5.131
30304.000			-35.919			-5.131
30404.000			-35.918			-5.131
30504.000			-35.913			-5.130
30605.000			-35.912			-5.130
30704.000			-35.911			-5.130
30804.000			-35.909			-5.130
30905.000			-35.907			-5.130
31003.000			-35.905			-5.129
31104.000			-35.904			-5.129
31205.000			-35.901			-5.129
31304.000			-35.900			-5.129
31404.000			-35.898			-5.128
31505.000			-35.896			-5.128
31604.000			-35.894			-5.128
31703.000			-35.893			-5.128
31804.000			-35.892			-5.127
31904.000			-35.890			-5.127
32005.000			-35.888			-5.127
32104.000			-35.887			-5.127
32204.000			-35.884			-5.126
32305.000			-35.883			-5.126
32403.000			-35.881			-5.126
32504.000			-35.879			-5.126
32605.000			-35.878			-5.125
32704.000			-35.875			-5.125
32804.000			-35.875			-5.125
32905.000			-35.872			-5.125
33004.000			-35.871			-5.124
33103.000			-35.869			-5.124
33205.000			-35.868			-5.124
33304.000			-35.867			-5.124
33404.000			-35.863			-5.123
33505.000			-35.863			-5.123
33604.000			-35.861			-5.123
33704.000			-35.859			-5.123
33804.000			-35.857			-5.122
33904.000			-35.855			-5.122
34004.000			-35.854			-5.122
34105.000			-35.852			-5.122
34204.000			-35.850			-5.121
34304.000			-35.848			-5.121
34405.000			-35.846			-5.121
34503.000			-35.845			-5.121
34604.000			-35.844			-5.121
34705.000			-35.843			-5.120
34804.000			-35.843			-5.120
34905.000			-35.839			-5.120
35004.000			-35.837			-5.120
35104.000			-35.835			-5.119
35204.000			-35.834			-5.119
35304.000			-35.832			-5.119
35404.000			-35.831			-5.119
35505.000			-35.830			-5.119
35604.000			-35.826			-5.118
35703.000			-35.826			-5.118
35805.000			-35.824			-5.118
35904.000			-35.823			-5.118
36004.000			-35.822			-5.117
36105.000			-35.819			-5.117
36204.000			-35.818			-5.117
36304.000			-35.817			-5.117
36404.000			-35.814			-5.116
36504.000			-35.813			-5.116
36604.000			-35.811			-5.116
36705.000			-35.810			-5.116
36804.000			-35.809			-5.116
36904.000			-35.808			-5.115
37005.000			-35.806			-5.115
37103.000			-35.805			-5.115
37204.000			-35.804			-5.115
37305.000			-35.801			-5.114
37404.000			-35.799			-5.114
37504.000			-35.798			-5.114
37605.000			-35.797			-5.114
37704.000			-35.795			-5.114
37803.000			-35.793			-5.113
37905.000			-35.791			-5.113
38004.000			-35.790			-5.113
38105.000			-35.789			-5.113
38204.000			-35.787			-5.112
38304.000			-35.785			-5.112
38405.000			-35.783			-5.112
38504.000			-35.782			-5.112
38604.000			-35.781			-5.112
38704.000			-35.780			-5.111
38804.000			-35.778			-5.111
38904.000			-35.777			-5.111
39005.000			-35.776			-5.111
39104.000			-35.774			-5.111
39204.000			-35.772			-5.110
39305.000			-35.771			-5.110
39403.000			-35.769			-5.110
39504.000			-35.768			-5.110
39605.000			-35.766			-5.109
39704.000			-35.767			-5.110
39804.000			-35.765			-5.109
39905.000			-35.761			-5.109
40004.000			-35.761			-5.109
40103.000			-35.758			-5.108
40205.000			-35.756			-5.108
40304.000			-35.756			-5.108
40404.000			-35.756			-5.108
40505.000			-35.755			-5.108
40604.000			-35.752			-5.107
40704.000			-35.750			-5.107
40804.000			-35.748			-5.107
40904.000			-35.747			-5.107
41004.000			-35.745			-5.106
41105.000			-35.745			-5.106
41204.000			-35.743			-5.106
41303.000			-35.741			-5.106
41404.000			-35.740			-5.106
41504.000			-35.739			-5.106
41605.000			-35.738			-5.105
41704.000			-35.737			-5.105
41804.000			-35.735			-5.105
41905.000			-35.733			-5.105
42003.000			-35.733			-5.105
42104.000			-35.730			-5.104
42205.000			-35.729			-5.104
42304.000			-35.727			-5.104
42404.000			-35.726			-5.104
42505.000			-35.727			-5.104
42604.000			-35.725			-5.104
42703.000			-35.724			-5.103
42805.000			-35.721			-5.103
42904.000			-35.719			-5.103
43004.000			-35.718			-5.103
43105.000			-35.717			-5.102
43204.000			-35.716			-5.102
43304.000			-35.714			-5.102
43404.000			-35.713			-5.102
43504.000			-35.712			-5.102
43604.000			-35.710			-5.101
43705.000			-35.710			-5.101
43804.000			-35.708			-5.101
43904.000			-35.707			-5.101
44005.000			-35.706			-5.101
44103.000			-35.705			-5.101
44204.000			-35.704			-5.101
44305.000			-35.701			-5.100
44404.000			-35.700			-5.100
44505.000			-35.699			-5.100
44604.000			-35.697			-5.100
44704.000			-35.696			-5.099
44804.000			-35.696			-5.099
44904.000			-35.693			-5.099
45004.000			-35.691			-5.099
45105.000			-35.691			-5.099
45204.000			-35.690			-5.099
45304.000			-35.689			-5.098
45405.000			-35.687			-5.098
45503.000			-35.687			-5.098
45604.000			-35.686			-5.098
45705.000			-35.683			-5.098
45804.000			-35.683			-5.098
45904.000			-35.681			-5.097
46005.000			-35.680			-5.097
46104.000			-35.680			-5.097
46203.000			-35.678			-5.097
46305.000			-35.676			-5.097
46404.000			-35.676			-5.097
46504.000			-35.673			-5.096
46605.000			-35.673			-5.096
46704.000			-35.672			-5.096
46804.000			-35.670			-5.096
46904.000			-35.668			-5.095
47004.000			-35.668			-5.095
47104.000			-35.667			-5.095
47205.000			-35.665			-5.095
47304.000			-35.664			-5.095
47404.000			-35.663			-5.095
47505.000			-35.662			-5.095
47603.000			-35.660			-5.094
47705.000			-35.659			-5.094
47804.000			-35.659			-5.094
47904.000			-35.655			-5.094
48005.000			-35.654			-5.093
48104.000			-35.654			-5.093
48204.000			-35.653			-5.093
48304.000			-35.653			-5.093
48404.000			-35.652			-5.093
48504.000			-35.650			-5.093
48605.000			-35.648			-5.093
48704.000			-35.646			-5.092
48804.000			-35.645			-5.092
48905.000			-35.644			-5.092
49003.000			-35.644			-5.092
49104.000			-35.643			-5.092
49205.000			-35.641			-5.092
49304.000			-35.640			-5.091
49404.000			-35.638			-5.091
49505.000			-35.638			-5.091
49604.000			-35.637			-5.091
49703.000			-35.636			-5.091
49805.000			-35.634			-5.091
49904.000			-35.632			-5.090
50004.000			-35.631			-5.090
50105.000			-35.628			-5.090
50204.000			-35.628			-5.090
50304.000			-35.628			-5.090
50404.000			-35.626			-5.089
50504.000			-35.625			-5.089
50604.000			-35.624			-5.089
50705.000			-35.623			-5.089
50804.000			-35.621			-5.089
50903.000			-35.620			-5.089
51004.000			-35.620			-5.089
51103.000			-35.619			-5.088
51205.000			-35.618			-5.088
51304.000			-35.617			-5.088
51404.000			-35.616			-5.088
51505.000			-35.613			-5.088
51603.000			-35.614			-5.088
51704.000			-35.612			-5.087
51805.000			-35.612			-5.087
51904.000			-35.610			-5.087
52004.000			-35.609			-5.087
52105.000			-35.608			-5.087
52204.000			-35.606			-5.087
52303.000			-35.604			-5.086
52405.000			-35.603			-5.086
52504.000			-35.602			-5.086
52604.000			-35.601			-5.086
52705.000			-35.601			-5.086
52804.000			-35.601			-5.086
52904.000			-35.600			-5.086
53004.000			-35.597			-5.085
53104.000			-35.596			-5.085
53204.000			-35.595			-5.085
53305.000			-35.595			-5.085
53404.000			-35.593			-5.085
53504.000			-35.591			-5.084
53605.000			-35.590			-5.084
53703.000			-35.590			-5.084
53804.000			-35.588			-5.084
53905.000			-35.586			-5.084
54004.000			-35.586			-5.084
54105.000			-35.585			-5.084
54204.000			-35.586			-5.084
54304.000			-35.584			-5.083
54404.000			-35.582			-5.083
54504.000			-35.580			-5.083
54604.000			-35.580			-5.083
54705.000			-35.579			-5.083
54804.000			-35.578			-5.083
54904.000			-35.576			-5.082
55005.000			-35.575			-5.082
55103.000			-35.575			-5.082
55204.000			-35.573			-5.082
55305.000			-35.572			-5.082
55404.000			-35.570			-5.081
55504.000			-35.569			-5.081
55605.000			-35.570			-5.081
55704.000			-35.569			-5.081
55803.000			-35.567			-5.081
55905.000			-35.565			-5.081
56004.000			-35.564			-5.081
56104.000			-35.563			-5.080
56205.000			-35.563			-5.080
56304.000			-35.562			-5.080
56404.000			-35.561			-5.080
56504.000			-35.560			-5.080
56604.000			-35.559			-5.080
56704.000			-35.557			-5.080
56805.000			-35.556			-5.079
56904.000			-35.556			-5.079
57004.000			-35.555			-5.079
57105.000			-35.553			-5.079
57203.000			-35.552			-5.079
57305.000			-35.552			-5.079
57404.000			-35.551			-5.079
57504.000			-35.551			-5.079
57605.000			-35.550			-5.079
57703.000			-35.548			-5.078
57804.000			-35.546			-5.078
57904.000			-35.545			-5.078
58004.000			-35.545			-5.078
58104.000			-35.543			-5.078
58205.000			-35.542			-5.077
58304.000			-35.542			-5.077
58403.000			-35.541			-5.077
58505.000			-35.540			-5.077
58604.000			-35.539			-5.077
58704.000			-35.538			-5.077
58805.000			-35.536			-5.077
58904.000			-35.535			-5.076
59004.000			-35.534			-5.076
59104.000			-35.532			-5.076
59204.000			-35.531			-5.076
59304.000			-35.531			-5.076
59405.000			-35.530			-5.076
59504.000			-35.529			-5.076
59604.000			-35.528			-5.075
59705.000			-35.527			-5.075
59803.000			-35.526			-5.075
59904.000			-35.525			-5.075
60005.000			-35.525			-5.075
60104.000			-35.523			-5.075
60204.000			-35.520			-5.074
60305.000			-35.519			-5.074
60404.000			-35.518			-5.074
60503.000			-35.517			-5.074
60604.000			-35.517			-5.074
60704.000			-35.516			-5.074
60805.000			-35.516			-5.074
60904.000			-35.514			-5.073
61004.000			-35.513			-5.073
61105.000			-35.512			-5.073
61203.000			-35.511			-5.073
61304.000			-35.511			-5.073
61405.000			-35.510			-5.073
61504.000			-35.510			-5.073
61604.000			-35.509			-5.073
61705.000			-35.506			-5.072
61804.000			-35.506			-5.072
61903.000			-35.504			-5.072
62005.000			-35.503			-5.072
62104.000			-35.503			-5.072
62204.000			-35.503			-5.072
62305.000			-35.502			-5.072
62403.000			-35.501			-5.072
62504.000			-35.499			-5.071
62605.000			-35.499			-5.071
62704.000			-35.498			-5.071
62804.000			-35.496			-5.071
62905.000			-35.495			-5.071
63004.000			-35.495			-5.071
63103.000			-35.494			-5.071
63205.000			-35.493			-5.070
63304.000			-35.492			-5.070
63404.000			-35.491			-5.070
63505.000			-35.490			-5.070
63604.000			-35.489			-5.070
63705.000			-35.488			-5.070
63803.000			-35.488			-5.070
63904.000			-35.485			-5.069
64004.000			-35.484			-5.069
64104.000			-35.484			-5.069
64204.000			-35.483			-5.069
64305.000			-35.482			-5.069
64404.000			-35.481			-5.069
64503.000			-35.481			-5.069
64605.000			-35.480			-5.069
64704.000			-35.478			-5.068
64804.000			-35.477			-5.068
64905.000			-35.477			-5.068
65004.000			-35.476			-5.068
65104.000			-35.475			-5.068
65204.000			-35.474			-5.068
65304.000			-35.473			-5.068
65404.000			-35.473			-5.068
65505.000			-35.472			-5.067
65604.000			-35.471			-5.067
65704.000			-35.469			-5.067
65805.000			-35.468			-5.067
65903.000			-35.468			-5.067
66004.000			-35.467			-5.067
66104.000			-35.465			-5.066
66204.000			-35.465			-5.066
66304.000			-35.464			-5.066
66405.000			-35.463			-5.066
66504.000			-35.462			-5.066
66604.000			-35.462			-5.066
66705.000			-35.461			-5.066
66803.000			-35.460			-5.066
66905.000			-35.459			-5.066
67004.000			-35.459			-5.066
67104.000			-35.457			-5.065
67205.000			-35.455			-5.065
67304.000			-35.455			-5.065
67404.000			-35.455			-5.065
67504.000			-35.452			-5.065
67604.000			-35.452			-5.065
67704.000			-35.453			-5.065
67805.000			-35.452			-5.065
67904.000			-35.450			-5.064
68004.000			-35.449			-5.064
68105.000			-35.449			-5.064
68203.000			-35.447			-5.064
68304.000			-35.446			-5.064
68405.000			-35.445			-5.064
68504.000			-35.444			-5.063
68604.000			-35.443			-5.063
68705.000			-35.443			-5.063
68804.000			-35.443			-5.063
68903.000			-35.440			-5.063
69005.000			-35.439			-5.063
69104.000			-35.439			-5.063
69204.000			-35.437			-5.062
69305.000			-35.436			-5.062
69404.000			-35.436			-5.062
69504.000			-35.436			-5.062
69604.000			-35.435			-5.062
69704.000			-35.434			-5.062
69804.000			-35.434			-5.062
69905.000			-35.432			-5.062
70004.000			-35.431			-5.062
70105.000			-35.431			-5.062
70204.000			-35.430			-5.061
70303.000			-35.428			-5.061
70405.000			-35.427			-5.061
70504.000			-35.427			-5.061
70604.000			-35.427			-5.061
70705.000			-35.425			-5.061
70804.000			-35.424			-5.061
70904.000			-35.423			-5.060
71004.000			-35.423			-5.060
71104.000			-35.420			-5.060
71204.000			-35.421			-5.060
71305.000			-35.420			-5.060
71404.000			-35.420			-5.060
71504.000			-35.419			-5.060
71605.000			-35.419			-5.060
71703.000			-35.417			-5.060
71804.000			-35.416			-5.059
71905.000			-35.415			-5.059
72004.000			-35.414			-5.059
72104.000			-35.412			-5.059
72204.000			-35.412			-5.059
72304.000			-35.412			-5.059
72403.000			-35.411			-5.059
72505.000			-35.411			-5.059
72604.000			-35.411			-5.059
72704.000			-35.409			-5.058
72805.000			-35.408			-5.058
72903.000			-35.407			-5.058
73004.000			-35.406			-5.058
73105.000			-35.405			-5.058
73204.000			-35.405			-5.058
73305.000			-35.403			-5.058
73404.000			-35.403			-5.058
73504.000			-35.402			-5.057
73604.000			-35.402			-5.057
73704.000			-35.402			-5.057
73803.000			-35.400			-5.057
73905.000			-35.398			-5.057
74004.000			-35.398			-5.057
74104.000			-35.397			-5.057
74205.000			-35.396			-5.057
74304.000			-35.395			-5.056
74404.000			-35.395			-5.056
74504.000			-35.394			-5.056
74604.000			-35.393			-5.056
74704.000			-35.393			-5.056
74805.000			-35.391			-5.056
74904.000			-35.391			-5.056
75004.000			-35.391			-5.056
75105.000			-35.390			-5.056
75203.000			-35.390			-5.056
75304.000			-35.388			-5.055
75405.000			-35.387			-5.055
75504.000			-35.386			-5.055
75604.000			-35.385			-5.055
75705.000			-35.383			-5.055
75804.000			-35.382			-5.055
75903.000			-35.383			-5.055
76005.000			-35.383			-5.055
76104.000			-35.382			-5.055
76204.000			-35.380			-5.054
76305.000			-35.380			-5.054
76404.000			-35.379			-5.054
76505.000			-35.379			-5.054
76603.000			-35.378			-5.054
76704.000			-35.377			-5.054
76805.000			-35.376			-5.054
76904.000			-35.375			-5.054
77004.000			-35.374			-5.053
77105.000			-35.373			-5.053
77204.000			-35.372			-5.053
77303.000			-35.372			-5.053
77405.000			-35.372			-5.053
77504.000			-35.371			-5.053
77604.000			-35.370			-5.053
77705.000			-35.368			-5.053
77804.000			-35.368			-5.053
77904.000			-35.366			-5.052
78004.000			-35.366			-5.052
78104.000			-35.366			-5.052
78204.000			-35.365			-5.052
78305.000			-35.364			-5.052
78404.000			-35.362			-5.052
78504.000			-35.361			-5.052
78605.000			-35.362			-5.052
78703.000			-35.362			-5.052
78804.000			-35.360			-5.051
78905.000			-35.360			-5.051
79004.000			-35.359			-5.051
79104.000			-35.357			-5.051
79205.000			-35.356			-5.051
79304.000			-35.357			-5.051
79403.000			-35.356			-5.051
79505.000			-35.355			-5.051
79604.000			-35.353			-5.050
79705.000			-35.353			-5.050
79804.000			-35.353			-5.050
79904.000			-35.352			-5.050
80005.000			-35.351			-5.050
80104.000			-35.351			-5.050
80204.000			-35.351			-5.050
80304.000			-35.350			-5.050
80404.000			-35.349			-5.050
80504.000			-35.348			-5.050
80605.000			-35.347			-5.050
80704.000			-35.346			-5.049
80804.000			-35.345			-5.049
80905.000			-35.345			-5.049
81003.000			-35.344			-5.049
81104.000			-35.344			-5.049
81205.000			-35.343			-5.049
81304.000			-35.342			-5.049
81404.000			-35.341			-5.049
81504.000			-35.340			-5.049
81604.000			-35.340			-5.049
81704.000			-35.337			-5.048
81805.000			-35.337			-5.048
81904.000			-35.338			-5.048
82004.000			-35.337			-5.048
82105.000			-35.335			-5.048
82203.000			-35.335			-5.048
82304.000			-35.334			-5.048
82405.000			-35.334			-5.048
82504.000			-35.333			-5.048
82604.000			-35.332			-5.047
82705.000			-35.331			-5.047
82804.000			-35.331			-5.047
82903.000			-35.330			-5.047
83004.000			-35.330			-5.047
83104.000			-35.329			-5.047
83205.000			-35.328			-5.047
83304.000			-35.327			-5.047
83404.000			-35.326			-5.047
83505.000			-35.323			-5.046
83603.000			-35.324			-5.046
83704.000			-35.323			-5.046
83805.000			-35.323			-5.046
83904.000			-35.323			-5.046
84004.000			-35.322			-5.046
84105.000			-35.322			-5.046
84204.000			-35.321			-5.046
84303.000			-35.320			-5.046
84405.000			-35.318			-5.045
84504.000			-35.318			-5.045
84604.000			-35.317			-5.045
84705.000			-35.317			-5.045
84804.000			-35.317			-5.045
84904.000			-35.315			-5.045
85004.000			-35.315			-5.045
85104.000			-35.315			-5.045
85204.000			-35.314			-5.045
85305.000			-35.313			-5.045
85404.000			-35.312			-5.045
85504.000			-35.311			-5.044
85605.000			-35.310			-5.044
85703.000			-35.309			-5.044
85804.000			-35.308			-5.044
85905.000			-35.308			-5.044
86004.000			-35.307			-5.044
86105.000			-35.307			-5.044
86204.000			-35.306			-5.044
86304.000			-35.305			-5.044
86404.000			-35.305			-5.044
86504.000			-35.304			-5.043
86604.000			-35.303			-5.043
86705.000			-35.303			-5.043
86804.000			-35.303			-5.043
86904.000			-35.302			-5.043
87005.000			-35.300			-5.043
87103.000			-35.299			-5.043
87204.000			-35.299			-5.043
87305.000			-35.299			-5.043
87404.000			-35.299			-5.043
87504.000			-35.298			-5.043
87605.000			-35.297			-5.042
87704.000			-35.295			-5.042
87803.000			-35.294			-5.042
87905.000			-35.294			-5.042
88004.000			-35.294			-5.042
88104.000			-35.292			-5.042
88205.000			-35.291			-5.042
88304.000			-35.291			-5.042
88404.000			-35.290			-5.041
88504.000			-35.290			-5.041
88604.000			-35.290			-5.041
88704.000			-35.289			-5.041
88805.000			-35.289			-5.041
88904.000			-35.288			-5.041
89004.000			-35.287			-5.041
89105.000			-35.286			-5.041
89204.000			-35.285			-5.041
89305.000			-35.284			-5.041
89403.000			-35.285			-5.041
89504.000			-35.284			-5.041
89605.000			-35.283			-5.040
89704.000			-35.282			-5.040
89804.000			-35.281			-5.040
89905.000			-35.281			-5.040
90004.000			-35.280			-5.040
90103.000			-35.279			-5.040
90205.000			-35.278			-5.040
90304.000			-35.278			-5.040
90404.000			-35.276			-5.039
90505.000			-35.275			-5.039
90604.000			-35.275			-5.039
90704.000			-35.275			-5.039
90804.000			-35.274			-5.039
90904.000			-35.273			-5.039
91004.000			-35.273			-5.039
91105.000			-35.272			-5.039
91204.000			-35.271			-5.039
91304.000			-35.270			-5.039
91405.000			-35.270			-5.039
91503.000			-35.269			-5.038
91604.000			-35.268			-5.038
91705.000			-35.268			-5.038
91804.000			-35.269			-5.038
91904.000			-35.268			-5.038
92005.000			-35.267			-5.038
92104.000			-35.266			-5.038
92203.000			-35.264			-5.038
92305.000			-35.264			-5.038
92404.000			-35.264			-5.038
92505.000			-35.263			-5.038
92604.000			-35.263			-5.038
92704.000			-35.262			-5.037
92805.000			-35.262			-5.037
92903.000			-35.261			-5.037
93004.000			-35.260			-5.037
93105.000			-35.258			-5.037
93204.000			-35.259			-5.037
93304.000			-35.258			-5.037
93405.000			-35.258			-5.037
93504.000			-35.256			-5.037
93603.000			-35.256			-5.037
93705.000			-35.256			-5.037
93804.000			-35.255			-5.036
93904.000			-35.255			-5.036
94005.000			-35.254			-5.036
94104.000			-35.253			-5.036
94204.000			-35.252			-5.036
94304.000			-35.252			-5.036
94404.000			-35.251			-5.036
94504.000			-35.250			-5.036
94605.000			-35.250			-5.036
94704.000			-35.250			-5.036
94804.000			-35.248			-5.035
94905.000			-35.247			-5.035
95003.000			-35.248			-5.035
95104.000			-35.246			-5.035
95205.000			-35.245			-5.035
95304.000			-35.244			-5.035
95404.000			-35.243			-5.035
95505.000			-35.243			-5.035
95604.000			-35.244			-5.035
95703.000			-35.243			-5.035
95804.000			-35.241			-5.034
95904.000			-35.241			-5.034
96005.000			-35.240			-5.034
96104.000			-35.240			-5.034
96204.000			-35.239			-5.034
96305.000			-35.239			-5.034
96403.000			-35.238			-5.034
96504.000			-35.238			-5.034
96605.000			-35.237			-5.034
96704.000			-35.237			-5.034
96804.000			-35.236			-5.034
96905.000			-35.234			-5.033
97004.000			-35.233			-5.033
97103.000			-35.234			-5.033
97205.000			-35.233			-5.033
97304.000			-35.232			-5.033
97404.000			-35.231			-5.033
97505.000			-35.231			-5.033
97604.000			-35.230			-5.033
97704.000			-35.230			-5.033
97804.000			-35.230			-5.033
97904.000			-35.229			-5.033
98004.000			-35.228			-5.033
98105.000			-35.227			-5.032
98204.000			-35.227			-5.032
98304.000			-35.227			-5.032
98405.000			-35.227			-5.032
98503.000			-35.226			-5.032
98604.000			-35.225			-5.032
98705.000			-35.223			-5.032
98804.000			-35.223			-5.032
98905.000			-35.221			-5.032
99004.000			-35.220			-5.031
99104.000			-35.221			-5.032
99204.000			-35.220			-5.031
99304.000			-35.220			-5.031
99403.000			-35.218			-5.031
99505.000			-35.218			-5.031
99604.000			-35.218			-5.031
99704.000			-35.217			-5.031
99805.000			-35.216			-5.031
99904.000			-35.216			-5.031
100004.000			-35.216			-5.031
100104.000			-35.216			-5.031
100204.000			-35.214			-5.031
100304.000			-35.214			-5.031
100405.000			-35.214			-5.031
100504.000			-35.212			-5.030
100603.000			-35.212			-5.030
100705.000			-35.211			-5.030
100804.000			-35.211			-5.030
100904.000			-35.210			-5.030
101005.000			-35.209			-5.030
101104.000			-35.208			-5.030
101204.000			-35.208			-5.030
101304.000			-35.207			-5.030
101404.000			-35.208			-5.030
101504.000			-35.207			-5.030
101605.000			-35.205			-5.029
101704.000			-35.205			-5.029
101804.000			-35.205			-5.029
101905.000			-35.204			-5.029
102003.000			-35.203			-5.029
102105.000			-35.203			-5.029
102204.000			-35.202			-5.029
102304.000			-35.201			-5.029
102405.000			-35.201			-5.029
102504.000			-35.201			-5.029
102604.000			-35.200			-5.029
102704.000			-35.198			-5.028
102804.000			-35.198			-5.028
102903.000			-35.198			-5.028
103005.000			-35.197			-5.028
103104.000			-35.197			-5.028
103204.000			-35.195			-5.028
103305.000			-35.195			-5.028
103404.000			-35.194			-5.028
103504.000			-35.194			-5.028
103604.000			-35.194			-5.028
103704.000			-35.193			-5.028
103804.000			-35.192			-5.027
103905.000			-35.193			-5.028
104004.000			-35.192			-5.027
104104.000			-35.191			-5.027
104205.000			-35.191			-5.027
104303.000			-35.190			-5.027
104404.000			-35.188			-5.027
104505.000			-35.187			-5.027
104604.000			-35.188			-5.027
104704.000			-35.187			-5.027
104805.000			-35.186			-5.027
104904.000			-35.186			-5.027
105003.000			-35.185			-5.026
105105.000			-35.185			-5.026
105204.000			-35.185			-5.026
105305.000			-35.185			-5.026
105404.000			-35.182			-5.026
105504.000			-35.182			-5.026
105605.000			-35.182			-5.026
105703.000			-35.182			-5.026
105804.000			-35.182			-5.026
105905.000			-35.181			-5.026
106004.000			-35.180			-5.026
106104.000			-35.178			-5.025
106205.000			-35.178			-5.025
106304.000			-35.178			-5.025
106403.000			-35.177			-5.025
106505.000			-35.176			-5.025
106604.000			-35.176			-5.025
106704.000			-35.175			-5.025
106805.000			-35.174			-5.025
106904.000			-35.173			-5.025
107004.000			-35.173			-5.025
107105.000			-35.173			-5.025
107204.000			-35.172			-5.025
107303.000			-35.171			-5.024
107405.000			-35.171			-5.024
107504.000			-35.171			-5.024
107604.000			-35.169			-5.024
107705.000			-35.168			-5.024
107804.000			-35.168			-5.024
107904.000			-35.168			-5.024
108004.000			-35.167			-5.024
108104.000			-35.166			-5.024
108204.000			-35.166			-5.024
108305.000			-35.166			-5.024
108404.000			-35.165			-5.024
108505.000			-35.165			-5.024
108604.000			-35.165			-5.024
108703.000			-35.165			-5.024
108805.000			-35.163			-5.023
108904.000			-35.163			-5.023
109004.000			-35.163			-5.023
109105.000			-35.161			-5.023
109204.000			-35.161			-5.023
109304.000			-35.161			-5.023
109404.000			-35.161			-5.023
109504.000			-35.160			-5.023
109603.000			-35.158			-5.023
109705.000			-35.158			-5.023
109804.000			-35.157			-5.022
109904.000			-35.157			-5.022
110005.000			-35.156			-5.022
110104.000			-35.155			-5.022
110204.000			-35.155			-5.022
110304.000			-35.154			-5.022
110404.000			-35.154			-5.022
110504.000			-35.154			-5.022
110605.000			-35.153			-5.022
110704.000			-35.153			-5.022
110803.000			-35.153			-5.022
110905.000			-35.152			-5.022
111004.000			-35.150			-5.021
111104.000			-35.151			-5.022
111205.000			-35.149			-5.021
111304.000			-35.149			-5.021
111404.000			-35.149			-5.021
111504.000			-35.149			-5.021
111604.000			-35.147			-5.021
111705.000			-35.146			-5.021
111804.000			-35.144			-5.021
111904.000			-35.145			-5.021
112005.000			-35.144			-5.021
112104.000			-35.144			-5.021
112203.000			-35.144			-5.021
112305.000			-35.143			-5.020
112404.000			-35.143			-5.020
112504.000			-35.141			-5.020
112605.000			-35.140			-5.020
112704.000			-35.140			-5.020
112804.000			-35.141			-5.020
112904.000			-35.140			-5.020
113004.000			-35.139			-5.020
113103.000			-35.139			-5.020
113205.000			-35.137			-5.020
113304.000			-35.138			-5.020
113404.000			-35.138			-5.020
113505.000			-35.136			-5.019
113604.000			-35.135			-5.019
113704.000			-35.135			-5.019
113804.000			-35.135			-5.019
113904.000			-35.135			-5.019
114004.000			-35.134			-5.019
114105.000			-35.134			-5.019
114204.000			-35.133			-5.019
114304.000			-35.132			-5.019
114405.000			-35.131			-5.019
114503.000			-35.131			-5.019
114604.000			-35.131			-5.019
114705.000			-35.130			-5.019
114804.000			-35.129			-5.018
114905.000			-35.128			-5.018
115004.000			-35.127			-5.018
115104.000			-35.128			-5.018
115204.000			-35.128			-5.018
115304.000			-35.127			-5.018
115404.000			-35.126			-5.018
115505.000			-35.125			-5.018
115604.000			-35.125			-5.018
115704.000			-35.125			-5.018
115805.000			-35.125			-5.018
115903.000			-35.124			-5.018
116004.000			-35.123			-5.018
116105.000			-35.122			-5.017
116204.000			-35.122			-5.017
116304.000			-35.122			-5.017
116405.000			-35.120			-5.017
116504.000			-35.120			-5.017
116603.000			-35.120			-5.017
116705.000			-35.120			-5.017
116804.000			-35.119			-5.017
116904.000			-35.117			-5.017
117005.000			-35.116			-5.017
117104.000			-35.116			-5.017
117204.000			-35.117			-5.017
117304.000			-35.117			-5.017
117404.000			-35.117			-5.017
117504.000			-35.116			-5.017
117605.000			-35.114			-5.016
117704.000			-35.114			-5.016
117804.000			-35.113			-5.016
117905.000			-35.113			-5.016
118003.000			-35.113			-5.016
118105.000			-35.112			-5.016
118204.000			-35.112			-5.016
118304.000			-35.110			-5.016
118405.000			-35.109			-5.016
118504.000			-35.110			-5.016
118604.000			-35.110			-5.016
118704.000			-35.109			-5.016
118804.000			-35.108			-5.015
118904.000			-35.107			-5.015
119005.000			-35.107			-5.015
119104.000			-35.107			-5.015
119204.000			-35.107			-5.015
119305.000			-35.106			-5.015
119403.000			-35.105			-5.015
119504.000			-35.104			-5.015
119605.000			-35.104			-5.015
119704.000			-35.104			-5.015
119804.000			-35.102			-5.015
119905.000			-35.102			-5.015
120004.000			-35.102			-5.015
120103.000			-35.102			-5.015
120205.000			-35.101			-5.014
120304.000			-35.100			-5.014
120404.000			-35.099			-5.014
120505.000			-35.100			-5.014
120604.000			-35.098			-5.014
120704.000			-35.098			-5.014
120804.000			-35.098			-5.014
120904.000			-35.098			-5.014
121004.000			-35.097			-5.014
121105.000			-35.096			-5.014
121204.000			-35.095			-5.014
121305.000			-35.094			-5.013
121404.000			-35.095			-5.014
121503.000			-35.093			-5.013
121605.000			-35.094			-5.013
121703.000			-35.094			-5.013
121804.000			-35.094			-5.013
121905.000			-35.092			-5.013
122004.000			-35.091			-5.013
122104.000			-35.091			-5.013
122205.000			-35.090			-5.013
122304.000			-35.089			-5.013
122403.000			-35.089			-5.013
122505.000			-35.089			-5.013
122604.000			-35.088			-5.013
122704.000			-35.089			-5.013
122805.000			-35.087			-5.012
122904.000			-35.086			-5.012
123004.000			-35.085			-5.012
123104.000			-35.086			-5.012
123204.000			-35.086			-5.012
123304.000			-35.086			-5.012
123405.000			-35.085			-5.012
123504.000			-35.084			-5.012
123604.000			-35.084			-5.012
123705.000			-35.083			-5.012
123803.000			-35.082			-5.012
123904.000			-35.082			-5.012
124005.000			-35.081			-5.012
124104.000			-35.081			-5.012
124204.000			-35.081			-5.012
124305.000			-35.080			-5.011
124404.000			-35.079			-5.011
124503.000			-35.078			-5.011
124604.000			-35.078			-5.011
124704.000			-35.079			-5.011
124805.000			-35.078			-5.011
124904.000			-35.077			-5.011
125004.000			-35.076			-5.011
125105.000			-35.075			-5.011
125203.000			-35.075			-5.011
125304.000			-35.076			-5.011
125405.000			-35.075			-5.011
125504.000			-35.074			-5.011
125604.000			-35.073			-5.010
125705.000			-35.073			-5.010
125804.000			-35.073			-5.010
125903.000			-35.072			-5.010
126005.000			-35.072			-5.010
126104.000			-35.071			-5.010
126204.000			-35.072			-5.010
126305.000			-35.069			-5.010
126404.000			-35.069			-5.010
126504.000			-35.068			-5.010
126604.000			-35.068			-5.010
126704.000			-35.067			-5.010
126803.000			-35.067			-5.010
126905.000			-35.066			-5.009
127004.000			-35.067			-5.010
127104.000			-35.066			-5.009
127205.000			-35.065			-5.009
127304.000			-35.064			-5.009
127404.000			-35.065			-5.009
127504.000			-35.064			-5.009
127604.000			-35.063			-5.009
127705.000			-35.061			-5.009
127804.000			-35.061			-5.009
127904.000			-35.062			-5.009
128005.000			-35.062			-5.009
128104.000			-35.061			-5.009
128203.000			-35.061			-5.009
128305.000			-35.061			-5.009
128404.000			-35.060			-5.009
128504.000			-35.058			-5.008
128605.000			-35.058			-5.008
128704.000			-35.059			-5.008
128804.000			-35.058			-5.008
128904.000			-35.057			-5.008
129004.000			-35.057			-5.008
129104.000			-35.057			-5.008
129205.000			-35.056			-5.008
129304.000			-35.055			-5.008
129404.000			-35.054			-5.008
129505.000			-35.054			-5.008
129603.000			-35.054			-5.008
129704.000			-35.053			-5.008
129805.000			-35.053			-5.008
129904.000			-35.052			-5.007
130004.000			-35.052			-5.007
130105.000			-35.051			-5.007
130204.000			-35.051			-5.007
130303.000			-35.050			-5.007
130405.000			-35.049			-5.007
130504.000			-35.049			-5.007
130604.000			-35.049			-5.007
130705.000			-35.049			-5.007
130804.000			-35.048			-5.007
130905.000			-35.047			-5.007
131003.000			-35.047			-5.007
131104.000			-35.047			-5.007
131205.000			-35.048			-5.007
131304.000			-35.047			-5.007
131404.000			-35.045			-5.006
131505.000			-35.045			-5.006
131604.000			-35.045			-5.006
131704.000			-35.043			-5.006
131805.000			-35.043			-5.006
131903.000			-35.043			-5.006
132004.000			-35.042			-5.006
132105.000			-35.041			-5.006
132204.000			-35.041			-5.006
132304.000			-35.041			-5.006
132405.000			-35.039			-5.006
132504.000			-35.040			-5.006
132603.000			-35.039			-5.006
132705.000			-35.038			-5.005
132804.000			-35.038			-5.005
132904.000			-35.038			-5.005
133005.000			-35.038			-5.005
133104.000			-35.037			-5.005
133204.000			-35.037			-5.005
133305.000			-35.036			-5.005
133404.000			-35.036			-5.005
133503.000			-35.035			-5.005
133605.000			-35.033			-5.005
133704.000			-35.034			-5.005
133804.000			-35.034			-5.005
133905.000			-35.033			-5.005
134004.000			-35.033			-5.005
134105.000			-35.033			-5.005
134204.000			-35.032			-5.005
134304.000			-35.032			-5.005
134404.000			-35.031			-5.004
134504.000			-35.031			-5.004
134604.000			-35.030			-5.004
134705.000			-35.030			-5.004
134804.000			-35.029			-5.004
134904.000			-35.028			-5.004
135005.000			-35.028			-5.004
135103.000			-35.027			-5.004
135204.000			-35.027			-5.004
135305.000			-35.027			-5.004
135404.000			-35.026			-5.004
135504.000			-35.026			-5.004
135605.000			-35.026			-5.004
135704.000			-35.025			-5.004
135804.000			-35.024			-5.003
135905.000			-35.025			-5.004
136003.000			-35.025			-5.004
136104.000			-35.024			-5.003
136205.000			-35.023			-5.003
136304.000			-35.022			-5.003
136404.000			-35.022			-5.003
136505.000			-35.021			-5.003
136604.000			-35.021			-5.003
136703.000			-35.022			-5.003
136805.000			-35.021			-5.003
136903.000			-35.019			-5.003
137004.000			-35.019			-5.003
137105.000			-35.019			-5.003
137204.000			-35.019			-5.003
137305.000			-35.019			-5.003
137404.000			-35.017			-5.002
137504.000			-35.016			-5.002
137604.000			-35.017			-5.002
137704.000			-35.016			-5.002
137803.000			-35.015			-5.002
137905.000			-35.014			-5.002
138004.000			-35.014			-5.002
138104.000			-35.013			-5.002
138205.000			-35.013			-5.002
138304.000			-35.012			-5.002
138404.000			-35.011			-5.002
138504.000			-35.012			-5.002
138604.000			-35.012			-5.002
138704.000			-35.012			-5.002
138805.000			-35.011			-5.002
138904.000			-35.010			-5.001
139004.000			-35.010			-5.001
139105.000			-35.011			-5.002
139204.000			-35.011			-5.002
139304.000			-35.010			-5.001
139404.000			-35.009			-5.001
139504.000			-35.009			-5.001
139604.000			-35.007			-5.001
139705.000			-35.006			-5.001
139804.000			-35.006			-5.001
139904.000			-35.007			-5.001
140005.000			-35.006			-5.001
140103.000			-35.005			-5.001
140204.000			-35.005			-5.001
140305.000			-35.004			-5.001
140404.000			-35.004			-5.001
140505.000			-35.003			-5.000
140604.000			-35.002			-5.000
140704.000			-35.002			-5.000
140805.000			-35.002			-5.000
140904.000			-35.000			-5.000
141003.000			-35.001			-5.000
141105.000			-35.000			-5.000
141204.000			-35.000			-5.000
141304.000			-35.000			-5.000
141405.000			-35.000			-5.000
141504.000			-34.999			-5.000
141604.000			-34.997			-5.000
141704.000			-34.997			-5.000
141804.000			-34.997			-5.000
141903.000			-34.996			-4.999
142005.000			-34.996			-4.999
142104.000			-34.996			-4.999
142204.000			-34.997			-5.000
142305.000			-34.995			-4.999
142404.000			-34.995			-4.999
142504.000			-34.994			-4.999
142604.000			-34.994			-4.999
142704.000			-34.993			-4.999
142803.000			-34.994			-4.999
142905.000			-34.992			-4.999
143004.000			-34.993			-4.999
143104.000			-34.992			-4.999
143205.000			-34.991			-4.999
143304.000			-34.991			-4.999
143404.000			-34.991			-4.999
143504.000			-34.990			-4.999
143604.000			-34.989			-4.998
143703.000			-34.989			-4.998
143804.000			-34.989			-4.998
143904.000			-34.988			-4.998
144005.000			-34.989			-4.998
144104.000			-34.988			-4.998
144204.000			-34.987			-4.998
144305.000			-34.986			-4.998
144404.000			-34.986			-4.998
144504.000			-34.986			-4.998
144604.000			-34.985			-4.998
144704.000			-34.984			-4.998
144803.000			-34.985			-4.998
144905.000			-34.984			-4.998
145004.000			-34.983			-4.998
145104.000			-34.982			-4.997
145205.000			-34.982			-4.997
145304.000			-34.982			-4.997
145404.000			-34.981			-4.997
145504.000			-34.981			-4.997
145604.000			-34.981			-4.997
145703.000			-34.980			-4.997
145805.000			-34.980			-4.997
145904.000			-34.979			-4.997
146004.000			-34.979			-4.997
146105.000			-34.978			-4.997
146204.000			-34.978			-4.997
146304.000			-34.978			-4.997
146405.000			-34.977			-4.997
146504.000			-34.977			-4.997
146603.000			-34.977			-4.997
146705.000			-34.975			-4.996
146804.000			-34.975			-4.996
146905.000			-34.976			-4.997
147004.000			-34.975			-4.996
147104.000			-34.974			-4.996
147205.000			-34.972			-4.996
147304.000			-34.972			-4.996
147404.000			-34.972			-4.996
147504.000			-34.972			-4.996
147604.000			-34.972			-4.996
147703.000			-34.971			-4.996
147805.000			-34.971			-4.996
147904.000			-34.971			-4.996
148004.000			-34.971			-4.996
148105.000			-34.970			-4.996
148204.000			-34.969			-4.996
148304.000			-34.969			-4.996
148404.000			-34.970			-4.996
148504.000			-34.969			-4.996
148603.000			-34.968			-4.995
148705.000			-34.968			-4.995
148804.000			-34.967			-4.995
148904.000			-34.966			-4.995
149005.000			-34.965			-4.995
149104.000			-34.965			-4.995
149204.000			-34.965			-4.995
149305.000			-34.965			-4.995
149404.000			-34.965			-4.995
149503.000			-34.964			-4.995
149605.000			-34.963			-4.995
149704.000			-34.962			-4.995
149804.000			-34.962			-4.995
149905.000			-34.962			-4.995
150004.000			-34.962			-4.995
150105.000			-34.962			-4.995
150204.000			-34.961			-4.994
150304.000			-34.960			-4.994
150404.000			-34.961			-4.994
150504.000			-34.960			-4.994
150603.000			-34.959			-4.994
150705.000			-34.959			-4.994
150804.000			-34.959			-4.994
150904.000			-34.958			-4.994
151005.000			-34.957			-4.994
151104.000			-34.957			-4.994
151204.000			-34.956			-4.994
151304.000			-34.957			-4.994
151404.000			-34.956			-4.994
151503.000			-34.956			-4.994
151605.000			-34.955			-4.994
151704.000			-34.955			-4.994
151804.000			-34.955			-4.994
151905.000			-34.954			-4.993
152004.000			-34.953			-4.993
152104.000			-34.953			-4.993
152204.000			-34.952			-4.993
152304.000			-34.952			-4.993
152403.000			-34.951			-4.993
152505.000			-34.951			-4.993
152604.000			-34.952			-4.993
152704.000			-34.951			-4.993
152805.000			-34.950			-4.993
152904.000			-34.950			-4.993
153004.000			-34.950			-4.993
153104.000			-34.949			-4.993
153204.000			-34.948			-4.993
153303.000			-34.947			-4.992
153404.000			-34.947			-4.992
153504.000			-34.947			-4.992
153605.000			-34.947			-4.992
153704.000			-34.947			-4.992
153804.000			-34.946			-4.992
153905.000			-34.945			-4.992
154004.000			-34.945			-4.992
154104.000			-34.945			-4.992
154204.000			-34.944			-4.992
154304.000			-34.944			-4.992
154404.000			-34.944			-4.992
154505.000			-34.942			-4.992
154604.000			-34.942			-4.992
154704.000			-34.943			-4.992
154805.000			-34.943			-4.992
154903.000			-34.943			-4.992
155004.000			-34.941			-4.992
155104.000			-34.941			-4.992
155204.000			-34.941			-4.992
155304.000			-34.941			-4.992
155405.000			-34.939			-4.991
155504.000			-34.938			-4.991
155604.000			-34.939			-4.991
155705.000			-34.939			-4.991
155803.000			-34.939			-4.991
155904.000			-34.938			-4.991
156004.000			-34.937			-4.991
156104.000			-34.936			-4.991
156204.000			-34.936			-4.991
156305.000			-34.936			-4.991
156404.000			-34.935			-4.991
156505.000			-34.935			-4.991
156604.000			-34.935			-4.991
156704.000			-34.935			-4.991
156805.000			-34.933			-4.990
156903.000			-34.932			-4.990
157004.000			-34.932			-4.990
157105.000			-34.933			-4.990
157204.000			-34.932			-4.990
157304.000			-34.932			-4.990
157405.000			-34.932			-4.990
157504.000			-34.931			-4.990
157604.000			-34.930			-4.990
157705.000			-34.930			-4.990
157803.000			-34.930			-4.990
157904.000			-34.930			-4.990
158005.000			-34.930			-4.990
158104.000			-34.928			-4.990
158204.000			-34.928			-4.990
158305.000			-34.928			-4.990
158404.000			-34.928			-4.990
158504.000			-34.927			-4.990
158605.000			-34.927			-4.990
158703.000			-34.927			-4.990
158804.000			-34.925			-4.989
158905.000			-34.924			-4.989
159004.000			-34.924			-4.989
159104.000			-34.925			-4.989
159205.000			-34.925			-4.989
159304.000			-34.924			-4.989
159404.000			-34.923			-4.989
159505.000			-34.923			-4.989
159603.000			-34.923			-4.989
159705.000			-34.923			-4.989
159803.000			-34.924			-4.989
159904.000			-34.923			-4.989
160005.000			-34.922			-4.989
160104.000			-34.921			-4.989
160204.000			-34.920			-4.989
160305.000			-34.920			-4.989
160404.000			-34.918			-4.988
160503.000			-34.918			-4.988
160605.000			-34.919			-4.988
160703.000			-34.919			-4.988
160804.000			-34.918			-4.988
160905.000			-34.918			-4.988
161004.000			-34.917			-4.988
161104.000			-34.917			-4.988
161205.000			-34.916			-4.988
161304.000			-34.915			-4.988
161403.000			-34.914			-4.988
161505.000			-34.915			-4.988
161603.000			-34.915			-4.988
161704.000			-34.914			-4.988
161805.000			-34.913			-4.988
161904.000			-34.914			-4.988
162004.000			-34.914			-4.988
162105.000			-34.914			-4.988
162204.000			-34.914			-4.988
162303.000			-34.913			-4.988
162405.000			-34.913			-4.988
162503.000			-34.913			-4.988
162604.000			-34.911			-4.987
162705.000			-34.909			-4.987
162804.000			-34.909			-4.987
162905.000			-34.911			-4.987
163004.000			-34.910			-4.987
163104.000			-34.910			-4.987
163204.000			-34.910			-4.987
163304.000			-34.909			-4.987
163403.000			-34.909			-4.987
163505.000			-34.909			-4.987
163604.000			-34.907			-4.987
163704.000			-34.906			-4.987
163805.000			-34.907			-4.987
163904.000			-34.907			-4.987
164004.000			-34.905			-4.986
164104.000			-34.905			-4.986
164204.000			-34.905			-4.986
164303.000			-34.905			-4.986
164405.000			-34.905			-4.986
164504.000			-34.904			-4.986
164604.000			-34.904			-4.986
164705.000			-34.903			-4.986
164804.000			-34.903			-4.986
164904.000			-34.903			-4.986
165004.000			-34.903			-4.986
165104.000			-34.902			-4.986
165204.000			-34.901			-4.986
165305.000			-34.901			-4.986
165404.000			-34.901			-4.986
165504.000			-34.900			-4.986
165605.000			-34.900			-4.986
165704.000			-34.900			-4.986
165804.000			-34.900			-4.986
165904.000			-34.899			-4.986
166004.000			-34.899			-4.986
166103.000			-34.899			-4.986
166204.000			-34.898			-4.985
166304.000			-34.898			-4.985
166405.000			-34.897			-4.985
166504.000			-34.896			-4.985
166604.000			-34.896			-4.985
166705.000			-34.894			-4.985
166804.000			-34.895			-4.985
166904.000			-34.895			-4.985
167004.000			-34.895			-4.985
167104.000			-34.894			-4.985
167203.000			-34.893			-4.985
167305.000			-34.894			-4.985
167404.000			-34.893			-4.985
167504.000			-34.893			-4.985
167605.000			-34.893			-4.985
167704.000			-34.892			-4.985
167804.000			-34.892			-4.985
167904.000			-34.892			-4.985
168004.000			-34.891			-4.984
168103.000			-34.891			-4.984
168205.000			-34.890			-4.984
168304.000			-34.890			-4.984
168404.000			-34.889			-4.984
168505.000			-34.889			-4.984
168604.000			-34.889			-4.984
168704.000			-34.888			-4.984
168805.000			-34.888			-4.984
168904.000			-34.886			-4.984
169003.000			-34.886			-4.984
169105.000			-34.886			-4.984
169203.000			-34.887			-4.984
169305.000			-34.886			-4.984
169404.000			-34.886			-4.984
169504.000			-34.886			-4.984
169605.000			-34.885			-4.984
169704.000			-34.884			-4.983
169804.000			-34.885			-4.984
169905.000			-34.884			-4.983
170004.000			-34.884			-4.983
170103.000			-34.884			-4.983
170205.000			-34.883			-4.983
170304.000			-34.882			-4.983
170404.000			-34.882			-4.983
170505.000			-34.882			-4.983
170604.000			-34.881			-4.983
170704.000			-34.881			-4.983
170805.000			-34.881			-4.983
170904.000			-34.880			-4.983
171003.000			-34.879			-4.983
171105.000			-34.879			-4.983
171204.000			-34.878			-4.983
171304.000			-34.878			-4.983
171405.000			-34.878			-4.983
171504.000			-34.877			-4.982
171604.000			-34.877			-4.982
171705.000			-34.876			-4.982
171804.000			-34.877			-4.982
171903.000			-34.875			-4.982
172005.000			-34.876			-4.982
172103.000			-34.876			-4.982
172204.000			-34.875			-4.982
172305.000			-34.874			-4.982
172404.000			-34.873			-4.982
172505.000			-34.874			-4.982
172604.000			-34.874			-4.982
172704.000			-34.873			-4.982
172805.000			-34.873			-4.982
172904.000			-34.873			-4.982
173003.000			-34.872			-4.982
173105.000			-34.872			-4.982
173204.000			-34.871			-4.982
173304.000			-34.870			-4.981
173405.000			-34.871			-4.982
173504.000			-34.870			-4.981
173604.000			-34.869			-4.981
173705.000			-34.870			-4.981
173804.000			-34.868			-4.981
173903.000			-34.868			-4.981
174005.000			-34.868			-4.981
174104.000			-34.868			-4.981
174204.000			-34.867			-4.981
174305.000			-34.868			-4.981
174404.000			-34.867			-4.981
174504.000			-34.866			-4.981
174605.000			-34.866			-4.981
174704.000			-34.865			-4.981
174803.000			-34.865			-4.981
174905.000			-34.864			-4.981
175003.000			-34.865			-4.981
175104.000			-34.864			-4.981
175205.000			-34.864			-4.981
175304.000			-34.864			-4.981
175404.000			-34.864			-4.981
175505.000			-34.864			-4.981
175604.000			-34.862			-4.980
175705.000			-34.861			-4.980
175804.000			-34.861			-4.980
175903.000			-34.860			-4.980
176005.000			-34.860			-4.980
176104.000			-34.860			-4.980
176204.000			-34.861			-4.980
176305.000			-34.859			-4.980
176404.000			-34.858			-4.980
176504.000			-34.859			-4.980
176605.000			-34.858			-4.980
176704.000			-34.858			-4.980
176803.000			-34.857			-4.980
176905.000			-34.858			-4.980
177003.000			-34.858			-4.980
177104.000			-34.856			-4.979
177205.000			-34.856			-4.979
177304.000			-34.856			-4.979
177404.000			-34.856			-4.979
177505.000			-34.855			-4.979
177604.000			-34.855			-4.979
177704.000			-34.855			-4.979
177805.000			-34.854			-4.979
177903.000			-34.854			-4.979
178004.000			-34.854			-4.979
178105.000			-34.853			-4.979
178204.000			-34.854			-4.979
178304.000			-34.853			-4.979
178405.000			-34.853			-4.979
178504.000			-34.851			-4.979
178604.000			-34.851			-4.979
178705.000			-34.851			-4.979
178803.000			-34.851			-4.979
178905.000			-34.851			-4.979
179004.000			-34.851			-4.979
179104.000			-34.850			-4.979
179205.000			-34.849			-4.978
179304.000			-34.849			-4.978
179404.000			-34.848			-4.978
179505.000			-34.849			-4.978
179604.000			-34.849			-4.978
179704.000			-34.847			-4.978
179805.000			-34.847			-4.978
179903.000			-34.847			-4.978
180004.000			-34.846			-4.978
180105.000			-34.846			-4.978
180204.000			-34.846			-4.978
180304.000			-34.847			-4.978
180405.000			-34.846			-4.978
180504.000			-34.844			-4.978
180604.000			-34.844			-4.978
180705.000			-34.844			-4.978
180803.000			-34.844			-4.978
180904.000			-34.843			-4.978
181005.000			-34.844			-4.978
181104.000			-34.843			-4.978
181204.000			-34.842			-4.977
181305.000			-34.842			-4.977
181404.000			-34.842			-4.977
181504.000			-34.842			-4.977
181605.000			-34.842			-4.977
181703.000			-34.841			-4.977
181804.000			-34.841			-4.977
181905.000			-34.841			-4.977
182004.000			-34.841			-4.977
182105.000			-34.839			-4.977
182204.000			-34.839			-4.977
182304.000			-34.838			-4.977
182405.000			-34.839			-4.977
182504.000			-34.838			-4.977
182603.000			-34.838			-4.977
182705.000			-34.838			-4.977
182803.000			-34.838			-4.977
182904.000			-34.836			-4.977
183005.000			-34.835			-4.976
183104.000			-34.836			-4.977
183204.000			-34.836			-4.977
183305.000			-34.835			-4.976
183404.000			-34.834			-4.976
183503.000			-34.833			-4.976
183605.000			-34.835			-4.976
183703.000			-34.835			-4.976
183804.000			-34.835			-4.976
183905.000			-34.833			-4.976
184004.000			-34.832			-4.976
184104.000			-34.832			-4.976
184205.000			-34.833			-4.976
184304.000			-34.832			-4.976
184403.000			-34.832			-4.976
184505.000			-34.832			-4.976
184603.000			-34.832			-4.976
184704.000			-34.831			-4.976
184805.000			-34.831			-4.976
184904.000			-34.830			-4.976
185004.000			-34.829			-4.976
185105.000			-34.829			-4.976
185204.000			-34.828			-4.975
185305.000			-34.829			-4.976
185404.000			-34.829			-4.976
185503.000			-34.828			-4.975
185605.000			-34.828			-4.975
185704.000			-34.828			-4.975
185804.000			-34.826			-4.975
185905.000			-34.825			-4.975
186004.000			-34.825			-4.975
186104.000			-34.826			-4.975
186205.000			-34.825			-4.975
186304.000			-34.825			-4.975
186403.000			-34.825			-4.975
186505.000			-34.823			-4.975
186604.000			-34.823			-4.975
186704.000			-34.822			-4.975
186805.000			-34.822			-4.975
186904.000			-34.822			-4.975
187004.000			-34.821			-4.974
187105.000			-34.821			-4.974
187204.000			-34.823			-4.975
187303.000			-34.822			-4.975
187405.000			-34.821			-4.974
187504.000			-34.820			-4.974
187604.000			-34.821			-4.974
187705.000			-34.821			-4.974
187804.000			-34.820			-4.974
187904.000			-34.820			-4.974
188005.000			-34.819			-4.974
188104.000			-34.817			-4.974
188203.000			-34.817			-4.974
188305.000			-34.817			-4.974
188404.000			-34.818			-4.974
188505.000			-34.818			-4.974
188604.000			-34.816			-4.974
188704.000			-34.817			-4.974
188805.000			-34.817			-4.974
188904.000			-34.816			-4.974
189004.000			-34.816			-4.974
189105.000			-34.815			-4.974
189204.000			-34.816			-4.974
189303.000			-34.815			-4.974
189405.000			-34.814			-4.973
189504.000			-34.814			-4.973
189604.000			-34.813			-4.973
189705.000			-34.813			-4.973
189804.000			-34.813			-4.973
189904.000			-34.813			-4.973
190005.000			-34.812			-4.973
190104.000			-34.812			-4.973
190203.000			-34.810			-4.973
190305.000			-34.810			-4.973
190404.000			-34.811			-4.973
190504.000			-34.812			-4.973
190605.000			-34.810			-4.973
190704.000			-34.810			-4.973
190804.000			-34.809			-4.973
190904.000			-34.809			-4.973
191004.000			-34.808			-4.973
191103.000			-34.808			-4.973
191205.000			-34.807			-4.972
191304.000			-34.807			-4.972
191404.000			-34.807			-4.972
191505.000			-34.807			-4.972
191604.000			-34.807			-4.972
191705.000			-34.805			-4.972
191804.000			-34.806			-4.972
191904.000			-34.806			-4.972
192004.000			-34.806			-4.972
192104.000			-34.805			-4.972
192204.000			-34.804			-4.972
192305.000			-34.805			-4.972
192404.000			-34.804			-4.972
192504.000			-34.803			-4.972
192605.000			-34.803			-4.972
192704.000			-34.803			-4.972
192804.000			-34.803			-4.972
192904.000			-34.802			-4.972
193004.000			-34.800			-4.971
193104.000			-34.801			-4.972
193205.000			-34.801			-4.972
193304.000			-34.801			-4.972
193404.000			-34.801			-4.972
193505.000			-34.799			-4.971
193604.000			-34.799			-4.971
193704.000			-34.800			-4.971
193804.000			-34.799			-4.971
193904.000			-34.798			-4.971
194004.000			-34.798			-4.971
194105.000			-34.798			-4.971
194204.000			-34.798			-4.971
194304.000			-34.798			-4.971
194405.000			-34.798			-4.971
194504.000			-34.796			-4.971
194604.000			-34.796			-4.971
194704.000			-34.796			-4.971
194804.000			-34.795			-4.971
194903.000			-34.797			-4.971
195004.000			-34.797			-4.971
195104.000			-34.795			-4.971
195205.000			-34.795			-4.971
195304.000			-34.795			-4.971
195404.000			-34.795			-4.971
195505.000			-34.794			-4.971
195604.000			-34.794			-4.971
195704.000			-34.793			-4.970
195804.000			-34.794			-4.971
195904.000			-34.792			-4.970
196003.000			-34.791			-4.970
196105.000			-34.792			-4.970
196204.000			-34.793			-4.970
196304.000			-34.792			-4.970
196405.000			-34.791			-4.970
196504.000			-34.790			-4.970
196604.000			-34.790			-4.970
196704.000			-34.790			-4.970
196804.000			-34.790			-4.970
196903.000			-34.789			-4.970
197005.000			-34.788			-4.970
197104.000			-34.788			-4.970
197204.000			-34.788			-4.970
197305.000			-34.788			-4.970
197404.000			-34.787			-4.970
197504.000			-34.787			-4.970
197605.000			-34.787			-4.970
197704.000			-34.785			-4.969
197803.000			-34.786			-4.969
197905.000			-34.786			-4.969
198003.000			-34.786			-4.969
198105.000			-34.785			-4.969
198204.000			-34.785			-4.969
198304.000			-34.785			-4.969
198405.000			-34.784			-4.969
198504.000			-34.783			-4.969
198604.000			-34.783			-4.969
198705.000			-34.783			-4.969
198804.000			-34.782			-4.969
198903.000			-34.782			-4.969
199005.000			-34.782			-4.969
199104.000			-34.782			-4.969
199204.000			-34.781			-4.969
199305.000			-34.781			-4.969
199404.000			-34.781			-4.969
199504.000			-34.781			-4.969
199605.000			-34.779			-4.968
199704.000			-34.780			-4.969
199803.000			-34.780			-4.969
199905.000			-34.779			-4.968
200003.000			-34.779			-4.968
200104.000			-34.779			-4.968
200205.000			-34.779			-4.968
200304.000			-34.778			-4.968
200404.000			-34.778			-4.968
200505.000			-34.777			-4.968
200604.000			-34.776			-4.968
200703.000			-34.778			-4.968
200805.000			-34.777			-4.968
200903.000			-34.776			-4.968
201004.000			-34.776			-4.968
201105.000			-34.776			-4.968
201204.000			-34.776			-4.968
201305.000			-34.774			-4.968
201404.000			-34.774			-4.968
201504.000			-34.774			-4.968
201604.000			-34.773			-4.968
201704.000			-34.773			-4.968
201803.000			-34.773			-4.968
201905.000			-34.773			-4.968
202004.000			-34.774			-4.968
202104.000			-34.773			-4.968
202205.000			-34.771			-4.967
202304.000			-34.771			-4.967
202404.000			-34.771			-4.967
202504.000			-34.769			-4.967
202604.000			-34.770			-4.967
202704.000			-34.771			-4.967
202805.000			-34.769			-4.967
202904.000			-34.769			-4.967
203004.000			-34.769			-4.967
203105.000			-34.770			-4.967
203204.000			-34.769			-4.967
203304.000			-34.768			-4.967
203404.000			-34.767			-4.967
203504.000			-34.768			-4.967
203604.000			-34.767			-4.967
203705.000			-34.767			-4.967
203804.000			-34.766			-4.967
203904.000			-34.767			-4.967
204005.000			-34.767			-4.967
204104.000			-34.767			-4.967
204204.000			-34.766			-4.967
204304.000			-34.765			-4.966
204404.000			-34.765			-4.966
204505.000			-34.764			-4.966
204604.000			-34.764			-4.966
204704.000			-34.764			-4.966
204805.000			-34.764			-4.966
204904.000			-34.764			-4.966
205004.000			-34.763			-4.966
205105.000			-34.762			-4.966
205203.000			-34.762			-4.966
205304.000			-34.762			-4.966
205405.000			-34.762			-4.966
205504.000			-34.761			-4.966
205604.000			-34.761			-4.966
205705.000			-34.762			-4.966
205804.000			-34.761			-4.966
205904.000			-34.760			-4.966
206005.000			-34.761			-4.966
206103.000			-34.759			-4.966
206204.000			-34.759			-4.966
206305.000			-34.759			-4.966
206404.000			-34.759			-4.966
206504.000			-34.759			-4.966
206605.000			-34.758			-4.965
206704.000			-34.758			-4.965
206804.000			-34.757			-4.965
206905.000			-34.758			-4.965
207003.000			-34.757			-4.965
207104.000			-34.756			-4.965
207205.000			-34.756			-4.965
207304.000			-34.756			-4.965
207404.000			-34.755			-4.965
207505.000			-34.755			-4.965
207604.000			-34.755			-4.965
207705.000			-34.755			-4.965
207804.000			-34.754			-4.965
207903.000			-34.753			-4.965
208005.000			-34.753			-4.965
208104.000			-34.753			-4.965
208204.000			-34.754			-4.965
208305.000			-34.753			-4.965
208404.000			-34.753			-4.965
208504.000			-34.753			-4.965
208605.000			-34.752			-4.965
208704.000			-34.751			-4.964
208803.000			-34.750			-4.964
208905.000			-34.750			-4.964
209004.000			-34.750			-4.964
209104.000			-34.750			-4.964
209205.000			-34.750			-4.964
209304.000			-34.749			-4.964
209404.000			-34.749			-4.964
209505.000			-34.750			-4.964
209604.000			-34.749			-4.964
209703.000			-34.747			-4.964
209805.000			-34.747			-4.964
209904.000			-34.747			-4.964
210004.000			-34.746			-4.964
210105.000			-34.746			-4.964
210204.000			-34.747			-4.964
210304.000			-34.747			-4.964
210405.000			-34.746			-4.964
210504.000			-34.746			-4.964
210603.000			-34.746			-4.964
210705.000			-34.745			-4.964
210804.000			-34.745			-4.964
210905.000			-34.745			-4.964
211004.000			-34.744			-4.963
211104.000			-34.743			-4.963
211205.000			-34.743			-4.963
211304.000			-34.743			-4.963
211404.000			-34.743			-4.963
211504.000			-34.742			-4.963
211604.000			-34.742			-4.963
211704.000			-34.742			-4.963
211805.000			-34.742			-4.963
211904.000			-34.742			-4.963
212004.000			-34.742			-4.963
212105.000			-34.742			-4.963
212203.000			-34.742			-4.963
212304.000			-34.741			-4.963
212404.000			-34.740			-4.963
212504.000			-34.739			-4.963
212604.000			-34.740			-4.963
212705.000			-34.740			-4.963
212804.000			-34.740			-4.963
212904.000			-34.738			-4.963
213005.000			-34.738			-4.963
213103.000			-34.737			-4.962
213204.000			-34.737			-4.962
213305.000			-34.738			-4.963
213404.000			-34.737			-4.962
213504.000			-34.737			-4.962
213605.000			-34.737			-4.962
213704.000			-34.736			-4.962
213804.000			-34.736			-4.962
213905.000			-34.736			-4.962
214003.000			-34.735			-4.962
214105.000			-34.734			-4.962
214204.000			-34.735			-4.962
214304.000			-34.734			-4.962
214405.000			-34.734			-4.962
214504.000			-34.733			-4.962
214604.000			-34.733			-4.962
214705.000			-34.734			-4.962
214804.000			-34.733			-4.962
214903.000			-34.732			-4.962
215005.000			-34.732			-4.962
215104.000			-34.732			-4.962
215204.000			-34.732			-4.962
215305.000			-34.731			-4.962
215404.000			-34.731			-4.962
215504.000			-34.730			-4.961
215604.000			-34.730			-4.961
215704.000			-34.729			-4.961
215803.000			-34.729			-4.961
215905.000			-34.730			-4.961
216004.000			-34.730			-4.961
216104.000			-34.730			-4.961
216205.000			-34.729			-4.961
216304.000			-34.729			-4.961
216404.000			-34.728			-4.961
216504.000			-34.727			-4.961
216604.000			-34.727			-4.961
216703.000			-34.727			-4.961
216805.000			-34.726			-4.961
216904.000			-34.726			-4.961
217004.000			-34.725			-4.961
217105.000			-34.725			-4.961
217204.000			-34.725			-4.961
217305.000			-34.725			-4.961
217403.000			-34.724			-4.961
217504.000			-34.724			-4.961
217604.000			-34.723			-4.960
217704.000			-34.723			-4.960
217804.000			-34.723			-4.960
217905.000			-34.722			-4.960
218004.000			-34.722			-4.960
218104.000			-34.723			-4.960
218205.000			-34.723			-4.960
218303.000			-34.722			-4.960
218404.000			-34.721			-4.960
218505.000			-34.721			-4.960
218604.000			-34.721			-4.960
218704.000			-34.721			-4.960
218805.000			-34.721			-4.960
218904.000			-34.720			-4.960
219004.000			-34.721			-4.960
219105.000			-34.721			-4.960
219203.000			-34.720			-4.960
219304.000			-34.719			-4.960
219405.000			-34.718			-4.960
219504.000			-34.719			-4.960
219604.000			-34.718			-4.960
219705.000			-34.718			-4.960
219804.000			-34.718			-4.960
219904.000			-34.717			-4.960
220005.000			-34.716			-4.959
220103.000			-34.716			-4.959
220204.000			-34.716			-4.959
220305.000			-34.716			-4.959
220404.000			-34.716			-4.959
220505.000			-34.716			-4.959
220604.000			-34.716			-4.959
220704.000			-34.716			-4.959
220804.000			-34.714			-4.959
220904.000			-34.714			-4.959
221003.000			-34.715			-4.959
221105.000			-34.713			-4.959
221204.000			-34.713			-4.959
221304.000			-34.713			-4.959
221405.000			-34.713			-4.959
221504.000			-34.714			-4.959
221604.000			-34.713			-4.959
221704.000			-34.712			-4.959
221804.000			-34.712			-4.959
221904.000			-34.711			-4.959
222005.000			-34.711			-4.959
222104.000			-34.711			-4.959
222204.000			-34.710			-4.959
222305.000			-34.710			-4.959
222403.000			-34.710			-4.959
222504.000			-34.710			-4.959
222604.000			-34.710			-4.959
222704.000			-34.710			-4.959
222804.000			-34.708			-4.958
222905.000			-34.709			-4.958
223004.000			-34.708			-4.958
223104.000			-34.708			-4.958
223205.000			-34.708			-4.958
223303.000			-34.707			-4.958
223404.000			-34.707			-4.958
223505.000			-34.706			-4.958
223604.000			-34.706			-4.958
223705.000			-34.706			-4.958
223804.000			-34.706			-4.958
223904.000			-34.705			-4.958
224005.000			-34.706			-4.958
224104.000			-34.706			-4.958
224203.000			-34.704			-4.958
224305.000			-34.704			-4.958
224404.000			-34.704			-4.958
224504.000			-34.704			-4.958
224605.000			-34.705			-4.958
224704.000			-34.704			-4.958
224804.000			-34.702			-4.957
224905.000			-34.702			-4.957
225004.000			-34.703			-4.958
225103.000			-34.702			-4.957
225205.000			-34.702			-4.957
225304.000			-34.702			-4.957
225404.000			-34.701			-4.957
225505.000			-34.701			-4.957
225604.000			-34.701			-4.957
225704.000			-34.701			-4.957
225804.000			-34.700			-4.957
225904.000			-34.700			-4.957
226003.000			-34.699			-4.957
226105.000			-34.699			-4.957
226204.000			-34.699			-4.957
226304.000			-34.699			-4.957
226405.000			-34.699			-4.957
226504.000			-34.699			-4.957
226604.000			-34.698			-4.957
226705.000			-34.697			-4.957
226804.000			-34.698			-4.957
226903.000			-34.699			-4.957
227004.000			-34.699			-4.957
227104.000			-34.697			-4.957
227205.000			-34.697			-4.957
227304.000			-34.696			-4.957
227404.000			-34.696			-4.957
227505.000			-34.696			-4.957
227604.000			-34.696			-4.957
227704.000			-34.696			-4.957
227804.000			-34.694			-4.956
227904.000			-34.694			-4.956
228003.000			-34.694			-4.956
228105.000			-34.694			-4.956
228204.000			-34.693			-4.956
228304.000			-34.693			-4.956
228405.000			-34.693			-4.956
228504.000			-34.693			-4.956
228604.000			-34.693			-4.956
228704.000			-34.691			-4.956
228804.000			-34.691			-4.956
228903.000			-34.691			-4.956
229005.000			-34.692			-4.956
229104.000			-34.691			-4.956
229204.000			-34.691			-4.956
229305.000			-34.689			-4.956
229404.000			-34.690			-4.956
229504.000			-34.690			-4.956
229605.000			-34.690			-4.956
229704.000			-34.689			-4.956
229803.000			-34.688			-4.955
229905.000			-34.689			-4.956
230004.000			-34.687			-4.955
230105.000			-34.687			-4.955
230204.000			-34.687			-4.955
230304.000			-34.687			-4.955
230405.000			-34.687			-4.955
230504.000			-34.687			-4.955
230604.000			-34.687			-4.955
230704.000			-34.686			-4.955
230804.000			-34.686			-4.955
230904.000			-34.686			-4.955
231005.000			-34.686			-4.955
231104.000			-34.686			-4.955
231204.000			-34.684			-4.955
231305.000			-34.683			-4.955
231404.000			-34.683			-4.955
231504.000			-34.683			-4.955
231604.000			-34.684			-4.955
231704.000			-34.684			-4.955
231804.000			-34.683			-4.955
231905.000			-34.683			-4.955
232004.000			-34.683			-4.955
232104.000			-34.682			-4.955
232205.000			-34.682			-4.955
232304.000			-34.682			-4.955
232404.000			-34.682			-4.955
232504.000			-34.681			-4.954
232604.000			-34.681			-4.954
232704.000			-34.680			-4.954
232805.000			-34.680			-4.954
232904.000			-34.680			-4.954
233004.000			-34.680			-4.954
233105.000			-34.679			-4.954
233204.000			-34.680			-4.954
233305.000			-34.679			-4.954
233403.000			-34.678			-4.954
233504.000			-34.678			-4.954
233605.000			-34.677			-4.954
233704.000			-34.677			-4.954
233804.000			-34.677			-4.954
233905.000			-34.677			-4.954
234004.000			-34.677			-4.954
234104.000			-34.677			-4.954
234205.000			-34.677			-4.954
234303.000			-34.677			-4.954
234404.000			-34.676			-4.954
234505.000			-34.675			-4.954
234604.000			-34.675			-4.954
234704.000			-34.675			-4.954
234805.000			-34.675			-4.954
234904.000			-34.675			-4.954
235004.000			-34.673			-4.953
235105.000			-34.674			-4.953
235203.000			-34.673			-4.953
235304.000			-34.673			-4.953
235405.000			-34.672			-4.953
235504.000			-34.672			-4.953
235604.000			-34.672			-4.953
235705.000			-34.672			-4.953
235804.000			-34.672			-4.953
235904.000			-34.670			-4.953
236005.000			-34.671			-4.953
236103.000			-34.671			-4.953
236204.000			-34.670			-4.953
236305.000			-34.669			-4.953
236404.000			-34.670			-4.953
236505.000			-34.670			-4.953
236604.000			-34.670			-4.953
236704.000			-34.669			-4.953
236805.000			-34.670			-4.953
236904.000			-34.669			-4.953
237003.000			-34.669			-4.953
237105.000			-34.668			-4.953
237203.000			-34.668			-4.953
237304.000			-34.668			-4.953
237405.000			-34.668			-4.953
237504.000			-34.667			-4.952
237604.000			-34.667			-4.952
237705.000			-34.667			-4.952
237804.000			-34.666			-4.952
237903.000			-34.666			-4.952
238005.000			-34.666			-4.952
238103.000			-34.665			-4.952
238204.000			-34.666			-4.952
238305.000			-34.665			-4.952
238404.000			-34.664			-4.952
238504.000			-34.665			-4.952
238605.000			-34.665			-4.952
238704.000			-34.664			-4.952
238804.000			-34.663			-4.952
238905.000			-34.664			-4.952
239003.000			-34.664			-4.952
239104.000			-34.664			-4.952
239205.000			-34.663			-4.952
239304.000			-34.661			-4.952
239404.000			-34.662			-4.952
239505.000			-34.661			-4.952
239604.000			-34.661			-4.952
239705.000			-34.661			-4.952
239804.000			-34.660			-4.951
239903.000			-34.661			-4.952
240005.000			-34.660			-4.951
240104.000			-34.660			-4.951
240204.000			-34.660			-4.951
240305.000			-34.659			-4.951
240404.000			-34.659			-4.951
240504.000			-34.658			-4.951
240605.000			-34.658			-4.951
240704.000			-34.658			-4.951
240803.000			-34.659			-4.951
240905.000			-34.658			-4.951
241004.000			-34.657			-4.951
241104.000			-34.656			-4.951
241205.000			-34.657			-4.951
241304.000			-34.657			-4.951
241404.000			-34.656			-4.951
241505.000			-34.656			-4.951
241604.000			-34.656			-4.951
241703.000			-34.655			-4.951
241805.000			-34.655			-4.951
241904.000			-34.655			-4.951
242004.000			-34.655			-4.951
242105.000			-34.656			-4.951
242204.000			-34.655			-4.951
242304.000			-34.655			-4.951
242405.000			-34.654			-4.951
242504.000			-34.653			-4.950
242603.000			-34.653			-4.950
242705.000			-34.653			-4.950
242804.000			-34.653			-4.950
242905.000			-34.653			-4.950
243004.000			-34.653			-4.950
243104.000			-34.653			-4.950
243205.000			-34.652			-4.950
243304.000			-34.652			-4.950
243404.000			-34.652			-4.950
243504.000			-34.651			-4.950
243604.000			-34.651			-4.950
243704.000			-34.651			-4.950
243805.000			-34.649			-4.950
243904.000			-34.649			-4.950
244004.000			-34.650			-4.950
244105.000			-34.650			-4.950
244203.000			-34.651			-4.950
244304.000			-34.650			-4.950
244404.000			-34.648			-4.950
244504.000			-34.649			-4.950
244604.000			-34.649			-4.950
244705.000			-34.648			-4.950
244804.000			-34.647			-4.950
244904.000			-34.646			-4.949
245005.000			-34.646			-4.949
245103.000			-34.646			-4.949
245204.000			-34.646			-4.949
245304.000			-34.646			-4.949
245404.000			-34.646			-4.949
245504.000			-34.646			-4.949
245605.000			-34.645			-4.949
245704.000			-34.645			-4.949
245804.000			-34.644			-4.949
245905.000			-34.644			-4.949
246003.000			-34.644			-4.949
246105.000			-34.644			-4.949
246203.000			-34.644			-4.949
246304.000			-34.643			-4.949
246405.000			-34.643			-4.949
246504.000			-34.644			-4.949
246604.000			-34.644			-4.949
246705.000			-34.643			-4.949
246804.000			-34.643			-4.949
246903.000			-34.642			-4.949
247005.000			-34.642			-4.949
247104.000			-34.642			-4.949
247204.000			-34.641			-4.949
247305.000			-34.641			-4.949
247404.000			-34.641			-4.949
247504.000			-34.640			-4.949
247605.000			-34.640			-4.949
247704.000			-34.640			-4.949
247803.000			-34.640			-4.949
247905.000			-34.640			-4.949
248004.000			-34.640			-4.949
248104.000			-34.638			-4.948
248205.000			-34.637			-4.948
248304.000			-34.637			-4.948
248404.000			-34.638			-4.948
248505.000			-34.638			-4.948
248604.000			-34.638			-4.948
248703.000			-34.637			-4.948
248805.000			-34.637			-4.948
248904.000			-34.637			-4.948
249004.000			-34.637			-4.948
249105.000			-34.636			-4.948
249204.000			-34.636			-4.948
249305.000			-34.636			-4.948
249404.000			-34.635			-4.948
249504.000			-34.635			-4.948
249604.000			-34.635			-4.948
249704.000			-34.635			-4.948
249803.000			-34.634			-4.948
249905.000			-34.635			-4.948
250004.000			-34.634			-4.948
250104.000			-34.633			-4.948
250205.000			-34.633			-4.948
250304.000			-34.633			-4.948
250404.000			-34.631			-4.947
250504.000			-34.631			-4.947
250604.000			-34.632			-4.947
250703.000			-34.633			-4.948
250805.000			-34.633			-4.948
250904.000			-34.632			-4.947
251004.000			-34.631			-4.947
251105.000			-34.631			-4.947
251204.000			-34.630			-4.947
251304.000			-34.630			-4.947
251404.000			-34.631			-4.947
251504.000			-34.630			-4.947
251603.000			-34.630			-4.947
251705.000			-34.629			-4.947
251804.000			-34.629			-4.947
251904.000			-34.628			-4.947
252005.000			-34.629			-4.947
252104.000			-34.629			-4.947
252204.000			-34.629			-4.947
252304.000			-34.628			-4.947
252404.000			-34.627			-4.947
252503.000			-34.627			-4.947
252604.000			-34.627			-4.947
252704.000			-34.626			-4.947
252805.000			-34.626			-4.947
252904.000			-34.627			-4.947
253004.000			-34.627			-4.947
253105.000			-34.626			-4.947
253203.000			-34.625			-4.946
253304.000			-34.626			-4.947
253404.000			-34.626			-4.947
253504.000			-34.625			-4.946
253604.000			-34.626			-4.947
253705.000			-34.625			-4.946
253804.000			-34.624			-4.946
253904.000			-34.624			-4.946
254005.000			-34.623			-4.946
254103.000			-34.623			-4.946
254204.000			-34.623			-4.946
254305.000			-34.622			-4.946
254404.000			-34.622			-4.946
254504.000			-34.621			-4.946
254605.000			-34.622			-4.946
254704.000			-34.622			-4.946
254804.000			-34.621			-4.946
254905.000			-34.621			-4.946
255003.000			-34.621			-4.946
255104.000			-34.621			-4.946
255205.000			-34.621			-4.946
255304.000			-34.620			-4.946
255404.000			-34.620			-4.946
255505.000			-34.619			-4.946
255604.000			-34.619			-4.946
255705.000			-34.621			-4.946
255804.000			-34.619			-4.946
255903.000			-34.618			-4.945
256005.000			-34.617			-4.945
256104.000			-34.618			-4.945
256204.000			-34.618			-4.945
256305.000			-34.617			-4.945
256404.000			-34.617			-4.945
256504.000			-34.617			-4.945
256605.000			-34.617			-4.945
256704.000			-34.616			-4.945
256803.000			-34.615			-4.945
256905.000			-34.615			-4.945
257003.000			-34.616			-4.945
257104.000			-34.616			-4.945
257205.000			-34.616			-4.945
257304.000			-34.616			-4.945
257404.000			-34.616			-4.945
257505.000			-34.615			-4.945
257604.000			-34.613			-4.945
257703.000			-34.614			-4.945
257805.000			-34.614			-4.945
257904.000			-34.614			-4.945
258004.000			-34.614			-4.945
258105.000			-34.613			-4.945
258204.000			-34.612			-4.945
258304.000			-34.612			-4.945
258405.000			-34.613			-4.945
258504.000			-34.612			-4.945
258603.000			-34.612			-4.945
258705.000			-34.612			-4.945
258804.000			-34.612			-4.945
258905.000			-34.612			-4.945
259004.000			-34.610			-4.944
259104.000			-34.612			-4.945
259205.000			-34.610			-4.944
259304.000			-34.610			-4.944
259404.000			-34.611			-4.944
259504.000			-34.610			-4.944
259604.000			-34.610			-4.944
259703.000			-34.609			-4.944
259805.000			-34.609			-4.944
259904.000			-34.609			-4.944
260004.000			-34.608			-4.944
260105.000			-34.608			-4.944
260204.000			-34.606			-4.944
260304.000			-34.606			-4.944
260404.000			-34.607			-4.944
260504.000			-34.606			-4.944
260603.000			-34.606			-4.944
260705.000			-34.606			-4.944
260804.000			-34.605			-4.944
260904.000			-34.605			-4.944
261005.000			-34.605			-4.944
261104.000			-34.605			-4.944
261204.000			-34.605			-4.944
261304.000			-34.604			-4.943
261404.000			-34.604			-4.943
261504.000			-34.604			-4.943
261605.000			-34.604			-4.943
261704.000			-34.603			-4.943
261804.000			-34.603			-4.943
261905.000			-34.603			-4.943
262004.000			-34.602			-4.943
262105.000			-34.601			-4.943
262203.000			-34.601			-4.943
262304.000			-34.601			-4.943
262405.000			-34.602			-4.943
262504.000			-34.602			-4.943
262604.000			-34.600			-4.943
262705.000			-34.601			-4.943
262804.000			-34.602			-4.943
262903.000			-34.602			-4.943
263005.000			-34.601			-4.943
263103.000			-34.601			-4.943
263204.000			-34.601			-4.943
263305.000			-34.600			-4.943
263404.000			-34.600			-4.943
263504.000			-34.599			-4.943
263605.000			-34.599			-4.943
263704.000			-34.598			-4.943
263803.000			-34.599			-4.943
263905.000			-34.598			-4.943
264004.000			-34.598			-4.943
264104.000			-34.598			-4.943
264205.000			-34.597			-4.942
264304.000			-34.596			-4.942
264404.000			-34.597			-4.942
264505.000			-34.596			-4.942
264604.000			-34.596			-4.942
264703.000			-34.597			-4.942
264805.000			-34.596			-4.942
264903.000			-34.596			-4.942
265004.000			-34.596			-4.942
265105.000			-34.595			-4.942
265204.000			-34.595			-4.942
265305.000			-34.594			-4.942
265404.000			-34.594			-4.942
265504.000			-34.595			-4.942
265604.000			-34.595			-4.942
265704.000			-34.595			-4.942
265803.000			-34.595			-4.942
265905.000			-34.595			-4.942
266004.000			-34.594			-4.942
266104.000			-34.594			-4.942
266205.000			-34.594			-4.942
266304.000			-34.593			-4.942
266404.000			-34.593			-4.942
266504.000			-34.593			-4.942
266604.000			-34.592			-4.942
266703.000			-34.593			-4.942
266805.000			-34.592			-4.942
266904.000			-34.591			-4.942
267004.000			-34.592			-4.942
267105.000			-34.592			-4.942
267204.000			-34.590			-4.941
267304.000			-34.591			-4.942
267405.000			-34.590			-4.941
267504.000			-34.590			-4.941
267603.000			-34.590			-4.941
267705.000			-34.589			-4.941
267804.000			-34.589			-4.941
267904.000			-34.587			-4.941
268005.000			-34.588			-4.941
268104.000			-34.588			-4.941
268204.000			-34.587			-4.941
268305.000			-34.588			-4.941
268404.000			-34.588			-4.941
268503.000			-34.587			-4.941
268604.000			-34.587			-4.941
268703.000			-34.586			-4.941
268805.000			-34.586			-4.941
268904.000			-34.586			-4.941
269004.000			-34.587			-4.941
269105.000			-34.587			-4.941
269204.000			-34.586			-4.941
269304.000			-34.586			-4.941
269405.000			-34.585			-4.941
269504.000			-34.585			-4.941
269603.000			-34.586			-4.941
269705.000			-34.585			-4.941
269804.000			-34.584			-4.941
269904.000			-34.584			-4.941
270005.000			-34.584			-4.941
270104.000			-34.584			-4.941
270204.000			-34.584			-4.941
270305.000			-34.583			-4.940
270404.000			-34.583			-4.940
270503.000			-34.583			-4.940
270605.000			-34.582			-4.940
270704.000			-34.582			-4.940
270804.000			-34.582			-4.940
270905.000			-34.583			-4.940
271004.000			-34.582			-4.940
271104.000			-34.582			-4.940
271205.000			-34.582			-4.940
271304.000			-34.581			-4.940
271403.000			-34.580			-4.940
271505.000			-34.580			-4.940
271604.000			-34.580			-4.940
271705.000			-34.579			-4.940
271804.000			-34.579			-4.940
271904.000			-34.579			-4.940
272005.000			-34.579			-4.940
272104.000			-34.579			-4.940
272204.000			-34.579			-4.940
272304.000			-34.579			-4.940
272404.000			-34.578			-4.940
272504.000			-34.578			-4.940
272605.000			-34.578			-4.940
272704.000			-34.578			-4.940
272804.000			-34.576			-4.939
272905.000			-34.577			-4.940
273004.000			-34.577			-4.940
273104.000			-34.577			-4.940
273204.000			-34.576			-4.939
273304.000			-34.576			-4.939
273403.000			-34.576			-4.939
273505.000			-34.574			-4.939
273604.000			-34.574			-4.939
273704.000			-34.575			-4.939
273805.000			-34.574			-4.939
273904.000			-34.574			-4.939
274004.000			-34.574			-4.939
274104.000			-34.573			-4.939
274204.000			-34.573			-4.939
274303.000			-34.574			-4.939
274405.000			-34.573			-4.939
274504.000			-34.573			-4.939
274604.000			-34.573			-4.939
274705.000			-34.572			-4.939
274804.000			-34.571			-4.939
274905.000			-34.570			-4.939
275004.000			-34.571			-4.939
275104.000			-34.571			-4.939
275204.000			-34.570			-4.939
275304.000			-34.571			-4.939
275404.000			-34.570			-4.939
275505.000			-34.570			-4.939
275604.000			-34.570			-4.939
275704.000			-34.570			-4.939
275805.000			-34.570			-4.939
275904.000			-34.570			-4.939
276004.000			-34.569			-4.938
276104.000			-34.568			-4.938
276204.000			-34.568			-4.938
276304.000			-34.569			-4.938
276405.000			-34.567			-4.938
276504.000			-34.568			-4.938
276604.000			-34.567			-4.938
276705.000			-34.567			-4.938
276804.000			-34.567			-4.938
276904.000			-34.566			-4.938
277004.000			-34.567			-4.938
277104.000			-34.568			-4.938
277203.000			-34.567			-4.938
277305.000			-34.566			-4.938
277404.000			-34.566			-4.938
277504.000			-34.565			-4.938
277605.000			-34.565			-4.938
277704.000			-34.564			-4.938
277804.000			-34.565			-4.938
277904.000			-34.565			-4.938
278004.000			-34.564			-4.938
278103.000			-34.564			-4.938
278204.000			-34.564			-4.938
278304.000			-34.563			-4.938
278405.000			-34.564			-4.938
278504.000			-34.563			-4.938
278604.000			-34.563			-4.938
278705.000			-34.561			-4.937
278804.000			-34.561			-4.937
278904.000			-34.562			-4.937
279004.000			-34.562			-4.937
279104.000			-34.562			-4.937
279204.000			-34.562			-4.938
279305.000			-34.561			-4.937
279404.000			-34.560			-4.937
279504.000			-34.560			-4.937
279605.000			-34.560			-4.937
279704.000			-34.560			-4.937
279804.000			-34.560			-4.937
279904.000			-34.560			-4.937
280004.000			-34.559			-4.937
280104.000			-34.558			-4.937
280205.000			-34.558			-4.937
280304.000			-34.559			-4.937
280404.000			-34.559			-4.937
280505.000			-34.558			-4.937
280604.000			-34.559			-4.937
280704.000			-34.558			-4.937
280804.000			-34.557			-4.937
280904.000			-34.557			-4.937
281004.000			-34.556			-4.937
281105.000			-34.556			-4.937
281204.000			-34.556			-4.937
281305.000			-34.556			-4.937
281404.000			-34.557			-4.937
281504.000			-34.556			-4.937
281605.000			-34.556			-4.937
281703.000			-34.556			-4.937
281804.000			-34.556			-4.937
281905.000			-34.554			-4.936
282004.000			-34.554			-4.936
282104.000			-34.555			-4.936
282205.000			-34.554			-4.936
282304.000			-34.554			-4.936
282404.000			-34.554			-4.936
282505.000			-34.554			-4.936
282603.000			-34.554			-4.936
282704.000			-34.552			-4.936
282805.000			-34.553			-4.936
282904.000			-34.553			-4.936
283004.000			-34.553			-4.936
283105.000			-34.552			-4.936
283204.000			-34.553			-4.936
283304.000			-34.553			-4.936
283405.000			-34.552			-4.936
283503.000			-34.552			-4.936
283604.000			-34.552			-4.936
283705.000			-34.551			-4.936
283804.000			-34.551			-4.936
283904.000			-34.551			-4.936
284005.000			-34.550			-4.936
284104.000			-34.549			-4.936
284204.000			-34.550			-4.936
284305.000			-34.549			-4.936
284403.000			-34.550			-4.936
284505.000			-34.549			-4.936
284604.000			-34.549			-4.936
284704.000			-34.549			-4.936
284805.000			-34.548			-4.935
284904.000			-34.548			-4.935
285004.000			-34.548			-4.935
285105.000			-34.549			-4.936
285204.000			-34.549			-4.936
285303.000			-34.548			-4.935
285405.000			-34.548			-4.935
285504.000			-34.547			-4.935
285604.000			-34.547			-4.935
285705.000			-34.546			-4.935
285804.000			-34.546			-4.935
285904.000			-34.546			-4.935
286005.000			-34.546			-4.935
286104.000			-34.545			-4.935
286203.000			-34.544			-4.935
286305.000			-34.544			-4.935
286404.000			-34.544			-4.935
286504.000			-34.544			-4.935
286605.000			-34.545			-4.935
286704.000			-34.545			-4.935
286804.000			-34.544			-4.935
286905.000			-34.543			-4.935
287004.000			-34.544			-4.935
287103.000			-34.544			-4.935
287205.000			-34.544			-4.935
287304.000			-34.543			-4.935
287404.000			-34.542			-4.935
287505.000			-34.541			-4.934
287604.000			-34.541			-4.934
287705.000			-34.541			-4.934
287804.000			-34.541			-4.934
287904.000			-34.540			-4.934
288004.000			-34.541			-4.934
288104.000			-34.541			-4.934
288203.000			-34.541			-4.934
288305.000			-34.541			-4.934
288404.000			-34.541			-4.934
288504.000			-34.542			-4.935
288605.000			-34.541			-4.934
288704.000			-34.540			-4.934
288804.000			-34.539			-4.934
288904.000			-34.540			-4.934
289004.000			-34.539			-4.934
289103.000			-34.539			-4.934
289205.000			-34.538			-4.934
289304.000			-34.538			-4.934
289404.000			-34.538			-4.934
289505.000			-34.538			-4.934
289604.000			-34.537			-4.934
289704.000			-34.537			-4.934
289804.000			-34.537			-4.934
289904.000			-34.536			-4.934
290003.000			-34.536			-4.934
290105.000			-34.536			-4.934
290204.000			-34.536			-4.934
290304.000			-34.536			-4.934
290405.000			-34.535			-4.934
290504.000			-34.534			-4.933
290604.000			-34.535			-4.934
290704.000			-34.535			-4.934
290804.000			-34.535			-4.934
290903.000			-34.535			-4.934
291004.000			-34.535			-4.934
291104.000			-34.535			-4.934
291205.000			-34.535			-4.934
291304.000			-34.534			-4.933
291404.000			-34.534			-4.933
291505.000			-34.535			-4.934
291603.000			-34.535			-4.934
291704.000			-34.532			-4.933
291804.000			-34.533			-4.933
291904.000			-34.532			-4.933
292004.000			-34.533			-4.933
292105.000			-34.533			-4.933
292204.000			-34.532			-4.933
292304.000			-34.531			-4.933
292405.000			-34.531			-4.933
292503.000			-34.530			-4.933
292604.000			-34.529			-4.933
292705.000			-34.530			-4.933
292804.000			-34.529			-4.933
292904.000			-34.531			-4.933
293005.000			-34.530			-4.933
293104.000			-34.530			-4.933
293204.000			-34.529			-4.933
293305.000			-34.529			-4.933
293403.000			-34.530			-4.933
293504.000			-34.529			-4.933
293604.000			-34.528			-4.933
293704.000			-34.529			-4.933
293804.000			-34.527			-4.932
293905.000			-34.527			-4.932
294004.000			-34.527			-4.932
294105.000			-34.527			-4.932
294204.000			-34.527			-4.932
294303.000			-34.526			-4.932
294405.000			-34.527			-4.932
294503.000			-34.526			-4.932
294604.000			-34.527			-4.932
294705.000			-34.526			-4.932
294804.000			-34.526			-4.932
294904.000			-34.527			-4.932
295005.000			-34.525			-4.932
295104.000			-34.525			-4.932
295203.000			-34.526			-4.932
295305.000			-34.525			-4.932
295403.000			-34.525			-4.932
295504.000			-34.524			-4.932
295605.000			-34.524			-4.932
295704.000			-34.524			-4.932
295804.000			-34.524			-4.932
295905.000			-34.523			-4.932
296004.000			-34.523			-4.932
296103.000			-34.523			-4.932
296205.000			-34.523			-4.932
296303.000			-34.523			-4.932
296404.000			-34.523			-4.932
296505.000			-34.523			-4.932
296604.000			-34.522			-4.932
296704.000			-34.522			-4.932
296805.000			-34.522			-4.932
296904.000			-34.522			-4.932
297003.000			-34.520			-4.931
297105.000			-34.520			-4.931
297203.000			-34.520			-4.931
297305.000			-34.520			-4.931
297404.000			-34.520			-4.931
297504.000			-34.519			-4.931
297605.000			-34.519			-4.931
297704.000			-34.519			-4.931
297804.000			-34.519			-4.931
297905.000			-34.518			-4.931
298004.000			-34.519			-4.931
298103.000			-34.519			-4.931
298205.000			-34.517			-4.931
298304.000			-34.517			-4.931
298404.000			-34.517			-4.931
298505.000			-34.517			-4.931
298604.000			-34.517			-4.931
298704.000			-34.517			-4.931
298805.000			-34.516			-4.931
298904.000			-34.516			-4.931
299003.000			-34.516			-4.931
299105.000			-34.516			-4.931
299203.000			-34.516			-4.931
299304.000			-34.515			-4.931
299405.000			-34.515			-4.931
299504.000			-34.516			-4.931
299604.000			-34.516			-4.931
299705.000			-34.514			-4.931
299804.000			-34.513			-4.930
299903.000			-34.514			-4.931
