# Acquired on 10/01/2024 17:08:47 
# SPIDER: Creep_9mm_07714532C-2
# CREEP MEASUREMENT

# time [ms]		force [N]		stiffness [N/mm]
0.000			-28.173			-3.130
101.000			-29.911			-3.323
201.000			-30.699			-3.411
301.000			-30.700			-3.411
401.000			-30.572			-3.397
500.000			-30.469			-3.385
600.000			-30.383			-3.376
701.000			-30.308			-3.368
800.000			-30.243			-3.360
900.000			-30.185			-3.354
1002.000			-30.083			-3.343
1101.000			-30.039			-3.338
1200.000			-29.997			-3.333
1300.000			-29.959			-3.329
1400.000			-29.923			-3.325
1501.000			-29.889			-3.321
1600.000			-29.856			-3.317
1701.000			-29.825			-3.314
1802.000			-29.768			-3.308
1901.000			-29.741			-3.305
2000.000			-29.716			-3.302
2101.000			-29.691			-3.299
2200.000			-29.668			-3.296
2300.000			-29.646			-3.294
2401.000			-29.624			-3.292
2501.000			-29.583			-3.287
2601.000			-29.563			-3.285
2701.000			-29.543			-3.283
2800.000			-29.524			-3.280
2900.000			-29.507			-3.279
3001.000			-29.489			-3.277
3100.000			-29.473			-3.275
3200.000			-29.440			-3.271
3302.000			-29.425			-3.269
3401.000			-29.410			-3.268
3500.000			-29.395			-3.266
3601.000			-29.381			-3.265
3700.000			-29.367			-3.263
3800.000			-29.352			-3.261
3901.000			-29.339			-3.260
4000.000			-29.315			-3.257
4101.000			-29.302			-3.256
4202.000			-29.289			-3.254
4300.000			-29.277			-3.253
4400.000			-29.264			-3.252
4500.000			-29.251			-3.250
4600.000			-29.240			-3.249
4701.000			-29.220			-3.247
4800.000			-29.209			-3.245
4901.000			-29.198			-3.244
5002.000			-29.187			-3.243
5100.000			-29.177			-3.242
5200.000			-29.168			-3.241
5301.000			-29.158			-3.240
5400.000			-29.137			-3.237
5500.000			-29.129			-3.237
5602.000			-29.120			-3.236
5701.000			-29.111			-3.235
5800.000			-29.101			-3.233
5901.000			-29.091			-3.232
6000.000			-29.082			-3.231
6100.000			-29.065			-3.229
6201.000			-29.056			-3.228
6300.000			-29.049			-3.228
6401.000			-29.041			-3.227
6502.000			-29.033			-3.226
6600.000			-29.025			-3.225
6700.000			-29.018			-3.224
6801.000			-29.009			-3.223
6900.000			-28.993			-3.221
7000.000			-28.985			-3.221
7101.000			-28.979			-3.220
7201.000			-28.972			-3.219
7301.000			-28.963			-3.218
7401.000			-28.957			-3.217
7500.000			-28.950			-3.217
7600.000			-28.936			-3.215
7700.000			-28.930			-3.214
7800.000			-28.923			-3.214
7901.000			-28.915			-3.213
8001.000			-28.908			-3.212
8101.000			-28.902			-3.211
8201.000			-28.896			-3.211
8300.000			-28.883			-3.209
8400.000			-28.877			-3.209
8501.000			-28.872			-3.208
8600.000			-28.865			-3.207
8700.000			-28.860			-3.207
8802.000			-28.854			-3.206
8901.000			-28.847			-3.205
9000.000			-28.840			-3.204
9101.000			-28.829			-3.203
9200.000			-28.824			-3.203
9300.000			-28.819			-3.202
9401.000			-28.813			-3.201
9500.000			-28.808			-3.201
9601.000			-28.803			-3.200
9702.000			-28.797			-3.200
9800.000			-28.785			-3.198
9900.000			-28.780			-3.198
10001.000			-28.775			-3.197
10100.000			-28.770			-3.197
10200.000			-28.765			-3.196
10301.000			-28.760			-3.196
10401.000			-28.755			-3.195
10501.000			-28.744			-3.194
10601.000			-28.739			-3.193
10700.000			-28.734			-3.193
10800.000			-28.731			-3.192
10900.000			-28.725			-3.192
11000.000			-28.720			-3.191
11101.000			-28.715			-3.191
11201.000			-28.706			-3.190
11301.000			-28.701			-3.189
11401.000			-28.697			-3.189
11500.000			-28.692			-3.188
11600.000			-28.686			-3.187
11701.000			-28.682			-3.187
11800.000			-28.678			-3.186
11900.000			-28.673			-3.186
12002.000			-28.665			-3.185
12101.000			-28.661			-3.185
12201.000			-28.657			-3.184
12301.000			-28.652			-3.184
12400.000			-28.648			-3.183
12500.000			-28.644			-3.183
12601.000			-28.638			-3.182
12700.000			-28.630			-3.181
12800.000			-28.626			-3.181
12902.000			-28.622			-3.180
13001.000			-28.618			-3.180
13100.000			-28.614			-3.179
13201.000			-28.611			-3.179
13300.000			-28.608			-3.179
13400.000			-28.599			-3.178
13501.000			-28.594			-3.177
13600.000			-28.590			-3.177
13701.000			-28.586			-3.176
13802.000			-28.583			-3.176
13900.000			-28.580			-3.176
14000.000			-28.575			-3.175
14100.000			-28.568			-3.174
14200.000			-28.564			-3.174
14301.000			-28.562			-3.174
14400.000			-28.557			-3.173
14501.000			-28.553			-3.173
14602.000			-28.550			-3.172
14700.000			-28.545			-3.172
14800.000			-28.542			-3.171
14901.000			-28.535			-3.171
15000.000			-28.532			-3.170
15100.000			-28.528			-3.170
15201.000			-28.525			-3.169
15301.000			-28.520			-3.169
15401.000			-28.518			-3.169
15501.000			-28.516			-3.168
15600.000			-28.507			-3.167
15700.000			-28.504			-3.167
15801.000			-28.501			-3.167
15900.000			-28.498			-3.166
16000.000			-28.495			-3.166
16102.000			-28.491			-3.166
16201.000			-28.487			-3.165
16300.000			-28.481			-3.165
16401.000			-28.478			-3.164
16500.000			-28.476			-3.164
16600.000			-28.473			-3.164
16701.000			-28.468			-3.163
16800.000			-28.465			-3.163
16900.000			-28.462			-3.162
17002.000			-28.456			-3.162
17101.000			-28.452			-3.161
17200.000			-28.450			-3.161
17300.000			-28.448			-3.161
17400.000			-28.445			-3.161
17501.000			-28.441			-3.160
17600.000			-28.437			-3.160
17700.000			-28.435			-3.159
17802.000			-28.428			-3.159
17901.000			-28.425			-3.158
18000.000			-28.423			-3.158
18101.000			-28.419			-3.158
18200.000			-28.416			-3.157
18300.000			-28.413			-3.157
18401.000			-28.411			-3.157
18500.000			-28.406			-3.156
18601.000			-28.403			-3.156
18702.000			-28.399			-3.155
18800.000			-28.396			-3.155
18900.000			-28.394			-3.155
19001.000			-28.391			-3.155
19100.000			-28.389			-3.154
19200.000			-28.383			-3.154
19301.000			-28.380			-3.153
19401.000			-28.378			-3.153
19501.000			-28.376			-3.153
19601.000			-28.373			-3.153
19700.000			-28.371			-3.152
19800.000			-28.368			-3.152
19901.000			-28.364			-3.152
20000.000			-28.360			-3.151
20100.000			-28.359			-3.151
20202.000			-28.355			-3.151
20301.000			-28.352			-3.150
20400.000			-28.349			-3.150
20500.000			-28.346			-3.150
20600.000			-28.343			-3.149
20701.000			-28.338			-3.149
20800.000			-28.335			-3.148
20900.000			-28.334			-3.148
21002.000			-28.331			-3.148
21101.000			-28.329			-3.148
21200.000			-28.326			-3.147
21301.000			-28.323			-3.147
21400.000			-28.318			-3.146
21500.000			-28.316			-3.146
21601.000			-28.314			-3.146
21700.000			-28.311			-3.146
21801.000			-28.309			-3.145
21902.000			-28.305			-3.145
22000.000			-28.302			-3.145
22100.000			-28.298			-3.144
22201.000			-28.296			-3.144
22300.000			-28.294			-3.144
22400.000			-28.291			-3.143
22501.000			-28.289			-3.143
22601.000			-28.287			-3.143
22701.000			-28.284			-3.143
22801.000			-28.283			-3.143
22900.000			-28.278			-3.142
23000.000			-28.276			-3.142
23101.000			-28.273			-3.141
23200.000			-28.270			-3.141
23300.000			-28.268			-3.141
23402.000			-28.267			-3.141
23501.000			-28.264			-3.140
23602.000			-28.259			-3.140
23700.000			-28.257			-3.140
23800.000			-28.254			-3.139
23901.000			-28.253			-3.139
24000.000			-28.250			-3.139
24100.000			-28.248			-3.139
24201.000			-28.246			-3.138
24301.000			-28.240			-3.138
24401.000			-28.238			-3.138
24501.000			-28.237			-3.137
24600.000			-28.234			-3.137
24700.000			-28.232			-3.137
24801.000			-28.230			-3.137
24900.000			-28.228			-3.136
25000.000			-28.227			-3.136
25102.000			-28.223			-3.136
25201.000			-28.220			-3.136
25300.000			-28.217			-3.135
25401.000			-28.214			-3.135
25500.000			-28.213			-3.135
25600.000			-28.211			-3.135
25701.000			-28.209			-3.134
25801.000			-28.206			-3.134
25901.000			-28.204			-3.134
26002.000			-28.202			-3.134
26100.000			-28.199			-3.133
26200.000			-28.197			-3.133
26301.000			-28.195			-3.133
26400.000			-28.194			-3.133
26500.000			-28.189			-3.132
26601.000			-28.187			-3.132
26701.000			-28.186			-3.132
26802.000			-28.183			-3.131
26900.000			-28.181			-3.131
27000.000			-28.179			-3.131
27101.000			-28.178			-3.131
27200.000			-28.173			-3.130
27300.000			-28.171			-3.130
27401.000			-28.169			-3.130
27501.000			-28.167			-3.130
27601.000			-28.166			-3.130
27701.000			-28.163			-3.129
27800.000			-28.162			-3.129
27900.000			-28.160			-3.129
28001.000			-28.154			-3.128
28100.000			-28.152			-3.128
28200.000			-28.151			-3.128
28302.000			-28.149			-3.128
28401.000			-28.146			-3.127
28500.000			-28.144			-3.127
28601.000			-28.143			-3.127
28700.000			-28.141			-3.127
28800.000			-28.138			-3.126
28901.000			-28.136			-3.126
29000.000			-28.134			-3.126
29101.000			-28.133			-3.126
29202.000			-28.130			-3.126
29300.000			-28.127			-3.125
29400.000			-28.124			-3.125
29501.000			-28.122			-3.125
29600.000			-28.121			-3.125
29700.000			-28.118			-3.124
29801.000			-28.116			-3.124
29901.000			-28.115			-3.124
30002.000			-28.112			-3.124
30100.000			-28.109			-3.123
30200.000			-28.107			-3.123
30301.000			-28.105			-3.123
30400.000			-28.104			-3.123
30500.000			-28.103			-3.123
30601.000			-28.101			-3.122
30701.000			-28.099			-3.122
30801.000			-28.098			-3.122
30901.000			-28.094			-3.122
31000.000			-28.092			-3.121
31100.000			-28.089			-3.121
31201.000			-28.088			-3.121
31300.000			-28.087			-3.121
31400.000			-28.085			-3.121
31502.000			-28.083			-3.120
31601.000			-28.079			-3.120
31700.000			-28.078			-3.120
31801.000			-28.076			-3.120
31900.000			-28.074			-3.119
32000.000			-28.073			-3.119
32101.000			-28.072			-3.119
32200.000			-28.070			-3.119
32301.000			-28.066			-3.118
32402.000			-28.064			-3.118
32500.000			-28.062			-3.118
32600.000			-28.061			-3.118
32701.000			-28.059			-3.118
32800.000			-28.058			-3.118
32900.000			-28.056			-3.117
33001.000			-28.052			-3.117
33101.000			-28.051			-3.117
33202.000			-28.049			-3.117
33300.000			-28.047			-3.116
33400.000			-28.045			-3.116
33501.000			-28.044			-3.116
33600.000			-28.043			-3.116
33700.000			-28.042			-3.116
33802.000			-28.039			-3.115
33901.000			-28.037			-3.115
34001.000			-28.035			-3.115
34101.000			-28.034			-3.115
34200.000			-28.032			-3.115
34300.000			-28.030			-3.114
34401.000			-28.030			-3.114
34500.000			-28.025			-3.114
34601.000			-28.024			-3.114
34702.000			-28.022			-3.114
34800.000			-28.021			-3.113
34900.000			-28.020			-3.113
35001.000			-28.018			-3.113
35100.000			-28.017			-3.113
35200.000			-28.012			-3.112
35301.000			-28.012			-3.112
35401.000			-28.011			-3.112
35501.000			-28.009			-3.112
35601.000			-28.007			-3.112
35700.000			-28.006			-3.112
35800.000			-28.005			-3.112
35901.000			-28.002			-3.111
36000.000			-28.000			-3.111
36100.000			-27.997			-3.111
36202.000			-27.997			-3.111
36301.000			-27.995			-3.111
36400.000			-27.994			-3.110
36500.000			-27.993			-3.110
36600.000			-27.991			-3.110
36701.000			-27.988			-3.110
36800.000			-27.987			-3.110
36900.000			-27.985			-3.109
37002.000			-27.984			-3.109
37101.000			-27.983			-3.109
37201.000			-27.981			-3.109
37301.000			-27.979			-3.109
37400.000			-27.977			-3.109
37500.000			-27.975			-3.108
37601.000			-27.973			-3.108
37700.000			-27.972			-3.108
37800.000			-27.971			-3.108
37902.000			-27.969			-3.108
38001.000			-27.967			-3.107
38100.000			-27.965			-3.107
38201.000			-27.962			-3.107
38300.000			-27.961			-3.107
38400.000			-27.961			-3.107
38501.000			-27.960			-3.107
38600.000			-27.959			-3.107
38701.000			-27.956			-3.106
38802.000			-27.954			-3.106
38901.000			-27.953			-3.106
39000.000			-27.951			-3.106
39101.000			-27.949			-3.105
39200.000			-27.948			-3.105
39300.000			-27.946			-3.105
39401.000			-27.944			-3.105
39500.000			-27.943			-3.105
39602.000			-27.940			-3.104
39701.000			-27.939			-3.104
39800.000			-27.938			-3.104
39901.000			-27.936			-3.104
40000.000			-27.936			-3.104
40100.000			-27.937			-3.104
40201.000			-27.935			-3.104
40300.000			-27.930			-3.103
40401.000			-27.929			-3.103
40502.000			-27.927			-3.103
40600.000			-27.926			-3.103
40700.000			-27.926			-3.103
40801.000			-27.924			-3.103
40900.000			-27.922			-3.102
41000.000			-27.920			-3.102
41101.000			-27.919			-3.102
41201.000			-27.916			-3.102
41301.000			-27.915			-3.102
41401.000			-27.914			-3.102
41500.000			-27.912			-3.101
41600.000			-27.910			-3.101
41701.000			-27.910			-3.101
41800.000			-27.906			-3.101
41900.000			-27.906			-3.101
42002.000			-27.905			-3.101
42101.000			-27.904			-3.100
42200.000			-27.903			-3.100
42301.000			-27.901			-3.100
42400.000			-27.900			-3.100
42500.000			-27.897			-3.100
42601.000			-27.895			-3.099
42700.000			-27.895			-3.099
42802.000			-27.893			-3.099
42901.000			-27.892			-3.099
43001.000			-27.890			-3.099
43101.000			-27.890			-3.099
43200.000			-27.886			-3.098
43300.000			-27.885			-3.098
43401.000			-27.884			-3.098
43500.000			-27.882			-3.098
43600.000			-27.881			-3.098
43702.000			-27.880			-3.098
43801.000			-27.880			-3.098
43900.000			-27.878			-3.098
44001.000			-27.876			-3.097
44100.000			-27.875			-3.097
44200.000			-27.873			-3.097
44301.000			-27.871			-3.097
44400.000			-27.870			-3.097
44501.000			-27.869			-3.097
44602.000			-27.868			-3.096
44700.000			-27.867			-3.096
44800.000			-27.865			-3.096
44901.000			-27.863			-3.096
45000.000			-27.861			-3.096
45100.000			-27.860			-3.096
45201.000			-27.859			-3.095
45301.000			-27.858			-3.095
45401.000			-27.855			-3.095
45502.000			-27.854			-3.095
45600.000			-27.853			-3.095
45700.000			-27.852			-3.095
45801.000			-27.851			-3.095
45900.000			-27.849			-3.094
46000.000			-27.849			-3.094
46100.000			-27.846			-3.094
46201.000			-27.844			-3.094
46302.000			-27.844			-3.094
46400.000			-27.843			-3.094
46500.000			-27.841			-3.093
46601.000			-27.839			-3.093
46700.000			-27.839			-3.093
46800.000			-27.838			-3.093
46901.000			-27.836			-3.093
47001.000			-27.834			-3.093
47101.000			-27.832			-3.092
47201.000			-27.831			-3.092
47300.000			-27.830			-3.092
47400.000			-27.829			-3.092
47501.000			-27.829			-3.092
47600.000			-27.827			-3.092
47700.000			-27.826			-3.092
47802.000			-27.824			-3.092
47901.000			-27.823			-3.091
48001.000			-27.821			-3.091
48101.000			-27.821			-3.091
48200.000			-27.819			-3.091
48300.000			-27.817			-3.091
48401.000			-27.816			-3.091
48500.000			-27.815			-3.091
48600.000			-27.814			-3.090
48702.000			-27.813			-3.090
48801.000			-27.812			-3.090
48900.000			-27.812			-3.090
49001.000			-27.809			-3.090
49100.000			-27.808			-3.090
49200.000			-27.807			-3.090
49300.000			-27.806			-3.090
49400.000			-27.804			-3.089
49502.000			-27.803			-3.089
49601.000			-27.802			-3.089
49700.000			-27.801			-3.089
49801.000			-27.799			-3.089
49900.000			-27.798			-3.089
50000.000			-27.797			-3.089
50101.000			-27.796			-3.088
50200.000			-27.796			-3.088
50301.000			-27.795			-3.088
50402.000			-27.793			-3.088
50500.000			-27.790			-3.088
50600.000			-27.789			-3.088
50701.000			-27.789			-3.088
50800.000			-27.788			-3.088
50900.000			-27.786			-3.087
51001.000			-27.785			-3.087
51101.000			-27.785			-3.087
51201.000			-27.783			-3.087
51302.000			-27.782			-3.087
51400.000			-27.781			-3.087
51500.000			-27.779			-3.087
51601.000			-27.778			-3.086
51700.000			-27.777			-3.086
51800.000			-27.777			-3.086
51901.000			-27.773			-3.086
52001.000			-27.773			-3.086
52101.000			-27.772			-3.086
52201.000			-27.771			-3.086
52300.000			-27.771			-3.086
52400.000			-27.770			-3.086
52500.000			-27.768			-3.085
52600.000			-27.767			-3.085
52701.000			-27.764			-3.085
52801.000			-27.765			-3.085
52901.000			-27.764			-3.085
53001.000			-27.762			-3.085
53100.000			-27.762			-3.085
53200.000			-27.760			-3.084
53301.000			-27.759			-3.084
53400.000			-27.756			-3.084
53500.000			-27.755			-3.084
53602.000			-27.756			-3.084
53701.000			-27.754			-3.084
53801.000			-27.753			-3.084
53901.000			-27.751			-3.083
54000.000			-27.751			-3.083
54100.000			-27.749			-3.083
54201.000			-27.747			-3.083
54300.000			-27.747			-3.083
54400.000			-27.746			-3.083
54502.000			-27.745			-3.083
54601.000			-27.743			-3.083
54700.000			-27.743			-3.083
54801.000			-27.742			-3.082
54900.000			-27.740			-3.082
55000.000			-27.738			-3.082
55101.000			-27.738			-3.082
55200.000			-27.737			-3.082
55301.000			-27.735			-3.082
55402.000			-27.734			-3.082
55500.000			-27.733			-3.081
55600.000			-27.733			-3.081
55700.000			-27.731			-3.081
55800.000			-27.729			-3.081
55901.000			-27.728			-3.081
56000.000			-27.727			-3.081
56101.000			-27.727			-3.081
56202.000			-27.725			-3.081
56300.000			-27.724			-3.080
56400.000			-27.723			-3.080
56501.000			-27.723			-3.080
56600.000			-27.722			-3.080
56700.000			-27.720			-3.080
56801.000			-27.719			-3.080
56901.000			-27.718			-3.080
57001.000			-27.717			-3.080
57101.000			-27.715			-3.079
57200.000			-27.714			-3.079
57300.000			-27.713			-3.079
57401.000			-27.712			-3.079
57500.000			-27.711			-3.079
57600.000			-27.710			-3.079
57702.000			-27.708			-3.079
57801.000			-27.707			-3.079
57900.000			-27.707			-3.079
58001.000			-27.706			-3.078
58100.000			-27.704			-3.078
58200.000			-27.703			-3.078
58301.000			-27.703			-3.078
58400.000			-27.702			-3.078
58501.000			-27.699			-3.078
58602.000			-27.698			-3.078
58701.000			-27.698			-3.078
58800.000			-27.699			-3.078
58900.000			-27.697			-3.077
59000.000			-27.696			-3.077
59101.000			-27.694			-3.077
59200.000			-27.692			-3.077
59300.000			-27.693			-3.077
59402.000			-27.691			-3.077
59501.000			-27.691			-3.077
59600.000			-27.689			-3.077
59701.000			-27.688			-3.076
59800.000			-27.687			-3.076
59900.000			-27.687			-3.076
60001.000			-27.685			-3.076
60100.000			-27.683			-3.076
60200.000			-27.683			-3.076
60302.000			-27.682			-3.076
60401.000			-27.680			-3.076
60500.000			-27.681			-3.076
60601.000			-27.680			-3.076
60700.000			-27.678			-3.075
60800.000			-27.677			-3.075
60901.000			-27.676			-3.075
61000.000			-27.675			-3.075
61101.000			-27.674			-3.075
61202.000			-27.674			-3.075
61300.000			-27.673			-3.075
61400.000			-27.670			-3.074
61501.000			-27.669			-3.074
61600.000			-27.668			-3.074
61700.000			-27.668			-3.074
61801.000			-27.666			-3.074
61901.000			-27.666			-3.074
62002.000			-27.665			-3.074
62100.000			-27.663			-3.074
62200.000			-27.661			-3.073
62301.000			-27.661			-3.073
62400.000			-27.660			-3.073
62500.000			-27.660			-3.073
62601.000			-27.659			-3.073
62701.000			-27.658			-3.073
62801.000			-27.657			-3.073
62901.000			-27.655			-3.073
63000.000			-27.655			-3.073
63100.000			-27.654			-3.073
63201.000			-27.651			-3.072
63300.000			-27.652			-3.072
63400.000			-27.652			-3.072
63502.000			-27.652			-3.072
63601.000			-27.650			-3.072
63700.000			-27.648			-3.072
63801.000			-27.646			-3.072
63900.000			-27.646			-3.072
64000.000			-27.645			-3.072
64101.000			-27.644			-3.072
64200.000			-27.643			-3.071
64301.000			-27.642			-3.071
64402.000			-27.642			-3.071
64500.000			-27.640			-3.071
64600.000			-27.639			-3.071
64701.000			-27.638			-3.071
64800.000			-27.638			-3.071
64900.000			-27.637			-3.071
65001.000			-27.635			-3.071
65100.000			-27.634			-3.070
65202.000			-27.633			-3.070
65301.000			-27.632			-3.070
65400.000			-27.630			-3.070
65501.000			-27.630			-3.070
65600.000			-27.629			-3.070
65700.000			-27.629			-3.070
65801.000			-27.627			-3.070
65900.000			-27.626			-3.070
66001.000			-27.624			-3.069
66102.000			-27.624			-3.069
66200.000			-27.623			-3.069
66300.000			-27.623			-3.069
66401.000			-27.622			-3.069
66500.000			-27.621			-3.069
66600.000			-27.621			-3.069
66701.000			-27.620			-3.069
66801.000			-27.618			-3.069
66901.000			-27.617			-3.069
67001.000			-27.617			-3.069
67100.000			-27.617			-3.069
67200.000			-27.614			-3.068
67301.000			-27.614			-3.068
67400.000			-27.614			-3.068
67500.000			-27.613			-3.068
67602.000			-27.612			-3.068
67701.000			-27.611			-3.068
67801.000			-27.609			-3.068
67901.000			-27.608			-3.068
68000.000			-27.608			-3.068
68100.000			-27.607			-3.067
68201.000			-27.606			-3.067
68300.000			-27.606			-3.067
68400.000			-27.605			-3.067
68502.000			-27.603			-3.067
68601.000			-27.603			-3.067
68701.000			-27.601			-3.067
68800.000			-27.600			-3.067
68900.000			-27.600			-3.067
69001.000			-27.600			-3.067
69100.000			-27.599			-3.067
69200.000			-27.597			-3.066
69302.000			-27.596			-3.066
69401.000			-27.595			-3.066
69501.000			-27.594			-3.066
69601.000			-27.593			-3.066
69700.000			-27.593			-3.066
69800.000			-27.593			-3.066
69901.000			-27.592			-3.066
70000.000			-27.591			-3.066
70100.000			-27.588			-3.065
70202.000			-27.587			-3.065
70301.000			-27.587			-3.065
70401.000			-27.586			-3.065
70501.000			-27.585			-3.065
70600.000			-27.585			-3.065
70700.000			-27.584			-3.065
70801.000			-27.583			-3.065
70900.000			-27.582			-3.065
71000.000			-27.581			-3.065
71102.000			-27.580			-3.064
71201.000			-27.580			-3.064
71300.000			-27.579			-3.064
71401.000			-27.577			-3.064
71500.000			-27.577			-3.064
71600.000			-27.576			-3.064
71700.000			-27.575			-3.064
71800.000			-27.575			-3.064
71902.000			-27.573			-3.064
72001.000			-27.572			-3.064
72101.000			-27.572			-3.064
72201.000			-27.571			-3.063
72300.000			-27.569			-3.063
72400.000			-27.568			-3.063
72501.000			-27.567			-3.063
72600.000			-27.566			-3.063
72700.000			-27.566			-3.063
72802.000			-27.565			-3.063
72901.000			-27.563			-3.063
73000.000			-27.562			-3.062
73101.000			-27.562			-3.062
73200.000			-27.562			-3.062
73300.000			-27.560			-3.062
73401.000			-27.559			-3.062
73500.000			-27.558			-3.062
73601.000			-27.557			-3.062
73702.000			-27.558			-3.062
73800.000			-27.555			-3.062
73900.000			-27.555			-3.062
74001.000			-27.555			-3.062
74100.000			-27.553			-3.061
74200.000			-27.553			-3.061
74301.000			-27.552			-3.061
74401.000			-27.552			-3.061
74501.000			-27.551			-3.061
74602.000			-27.550			-3.061
74700.000			-27.550			-3.061
74800.000			-27.548			-3.061
74900.000			-27.548			-3.061
75000.000			-27.545			-3.061
75101.000			-27.544			-3.060
75200.000			-27.545			-3.061
75301.000			-27.545			-3.061
75402.000			-27.543			-3.060
75500.000			-27.543			-3.060
75600.000			-27.542			-3.060
75701.000			-27.542			-3.060
75800.000			-27.541			-3.060
75900.000			-27.539			-3.060
76001.000			-27.539			-3.060
76101.000			-27.538			-3.060
76201.000			-27.536			-3.060
76302.000			-27.536			-3.060
76400.000			-27.536			-3.060
76500.000			-27.536			-3.060
76601.000			-27.535			-3.059
76700.000			-27.533			-3.059
76800.000			-27.532			-3.059
76901.000			-27.532			-3.059
77001.000			-27.531			-3.059
77101.000			-27.531			-3.059
77201.000			-27.530			-3.059
77300.000			-27.529			-3.059
77400.000			-27.527			-3.059
77501.000			-27.527			-3.059
77600.000			-27.526			-3.058
77700.000			-27.525			-3.058
77802.000			-27.524			-3.058
77901.000			-27.524			-3.058
78000.000			-27.524			-3.058
78100.000			-27.522			-3.058
78200.000			-27.521			-3.058
78301.000			-27.520			-3.058
78400.000			-27.520			-3.058
78500.000			-27.520			-3.058
78601.000			-27.519			-3.058
78701.000			-27.519			-3.058
78801.000			-27.516			-3.057
78901.000			-27.515			-3.057
79000.000			-27.515			-3.057
79100.000			-27.514			-3.057
79201.000			-27.514			-3.057
79300.000			-27.512			-3.057
79400.000			-27.512			-3.057
79502.000			-27.512			-3.057
79601.000			-27.511			-3.057
79700.000			-27.510			-3.057
79801.000			-27.510			-3.057
79900.000			-27.508			-3.056
80000.000			-27.507			-3.056
80101.000			-27.506			-3.056
80200.000			-27.505			-3.056
80301.000			-27.504			-3.056
80402.000			-27.503			-3.056
80500.000			-27.503			-3.056
80600.000			-27.503			-3.056
80701.000			-27.503			-3.056
80800.000			-27.501			-3.056
80900.000			-27.500			-3.056
81001.000			-27.499			-3.055
81101.000			-27.498			-3.055
81202.000			-27.498			-3.055
81301.000			-27.497			-3.055
81400.000			-27.497			-3.055
81501.000			-27.496			-3.055
81600.000			-27.496			-3.055
81700.000			-27.496			-3.055
81801.000			-27.494			-3.055
81900.000			-27.493			-3.055
82001.000			-27.493			-3.055
82102.000			-27.492			-3.055
82200.000			-27.491			-3.055
82300.000			-27.492			-3.055
82401.000			-27.490			-3.054
82500.000			-27.487			-3.054
82600.000			-27.488			-3.054
82701.000			-27.488			-3.054
82801.000			-27.487			-3.054
82901.000			-27.487			-3.054
83001.000			-27.486			-3.054
83100.000			-27.486			-3.054
83200.000			-27.483			-3.054
83301.000			-27.482			-3.054
83400.000			-27.482			-3.054
83500.000			-27.482			-3.054
83602.000			-27.481			-3.053
83701.000			-27.480			-3.053
83801.000			-27.479			-3.053
83901.000			-27.478			-3.053
84000.000			-27.477			-3.053
84100.000			-27.477			-3.053
84201.000			-27.476			-3.053
84300.000			-27.474			-3.053
84400.000			-27.474			-3.053
84502.000			-27.474			-3.053
84601.000			-27.473			-3.053
84701.000			-27.472			-3.052
84800.000			-27.472			-3.052
84900.000			-27.471			-3.052
85001.000			-27.469			-3.052
85100.000			-27.468			-3.052
85200.000			-27.469			-3.052
85302.000			-27.469			-3.052
85401.000			-27.467			-3.052
85501.000			-27.466			-3.052
85601.000			-27.465			-3.052
85700.000			-27.464			-3.052
85800.000			-27.463			-3.051
85901.000			-27.463			-3.051
86000.000			-27.462			-3.051
86100.000			-27.462			-3.051
86202.000			-27.461			-3.051
86301.000			-27.460			-3.051
86400.000			-27.459			-3.051
86501.000			-27.459			-3.051
86600.000			-27.458			-3.051
86700.000			-27.457			-3.051
86801.000			-27.456			-3.051
86900.000			-27.456			-3.051
87000.000			-27.454			-3.050
87102.000			-27.454			-3.050
87201.000			-27.454			-3.050
87300.000			-27.454			-3.050
87401.000			-27.453			-3.050
87500.000			-27.451			-3.050
87600.000			-27.451			-3.050
87700.000			-27.451			-3.050
87800.000			-27.449			-3.050
87902.000			-27.449			-3.050
88001.000			-27.448			-3.050
88100.000			-27.447			-3.050
88201.000			-27.447			-3.050
88300.000			-27.445			-3.049
88400.000			-27.444			-3.049
88501.000			-27.445			-3.049
88600.000			-27.444			-3.049
88701.000			-27.443			-3.049
88802.000			-27.442			-3.049
88901.000			-27.442			-3.049
89000.000			-27.441			-3.049
89101.000			-27.440			-3.049
89200.000			-27.439			-3.049
89300.000			-27.437			-3.049
89401.000			-27.438			-3.049
89500.000			-27.437			-3.049
89601.000			-27.436			-3.048
89702.000			-27.436			-3.048
89800.000			-27.435			-3.048
89900.000			-27.434			-3.048
90001.000			-27.433			-3.048
90100.000			-27.432			-3.048
90200.000			-27.432			-3.048
90301.000			-27.431			-3.048
90401.000			-27.430			-3.048
90501.000			-27.430			-3.048
90601.000			-27.429			-3.048
90700.000			-27.427			-3.047
90800.000			-27.428			-3.048
90900.000			-27.429			-3.048
91000.000			-27.427			-3.047
91101.000			-27.427			-3.047
91200.000			-27.426			-3.047
91301.000			-27.425			-3.047
91402.000			-27.424			-3.047
91500.000			-27.422			-3.047
91600.000			-27.423			-3.047
91701.000			-27.423			-3.047
91800.000			-27.422			-3.047
91900.000			-27.419			-3.047
92001.000			-27.419			-3.047
92101.000			-27.419			-3.047
92201.000			-27.418			-3.046
92301.000			-27.417			-3.046
92400.000			-27.417			-3.046
92500.000			-27.416			-3.046
92601.000			-27.415			-3.046
92700.000			-27.414			-3.046
92800.000			-27.414			-3.046
92902.000			-27.413			-3.046
93001.000			-27.412			-3.046
93100.000			-27.412			-3.046
93201.000			-27.411			-3.046
93300.000			-27.411			-3.046
93400.000			-27.410			-3.046
93501.000			-27.409			-3.045
93600.000			-27.407			-3.045
93701.000			-27.407			-3.045
93802.000			-27.407			-3.045
93900.000			-27.406			-3.045
94000.000			-27.406			-3.045
94100.000			-27.404			-3.045
94200.000			-27.404			-3.045
94301.000			-27.404			-3.045
94400.000			-27.403			-3.045
94501.000			-27.402			-3.045
94602.000			-27.401			-3.045
94700.000			-27.401			-3.045
94800.000			-27.401			-3.045
94901.000			-27.397			-3.044
95000.000			-27.398			-3.044
95100.000			-27.398			-3.044
95201.000			-27.397			-3.044
95300.000			-27.396			-3.044
95401.000			-27.395			-3.044
95502.000			-27.395			-3.044
95600.000			-27.395			-3.044
95700.000			-27.394			-3.044
95801.000			-27.392			-3.044
95900.000			-27.393			-3.044
96000.000			-27.392			-3.044
96101.000			-27.391			-3.043
96201.000			-27.390			-3.043
96301.000			-27.390			-3.043
96401.000			-27.390			-3.043
96500.000			-27.389			-3.043
96600.000			-27.388			-3.043
96701.000			-27.388			-3.043
96800.000			-27.387			-3.043
96900.000			-27.386			-3.043
97001.000			-27.386			-3.043
97101.000			-27.386			-3.043
97202.000			-27.385			-3.043
97300.000			-27.385			-3.043
97400.000			-27.384			-3.043
97501.000			-27.383			-3.043
97600.000			-27.382			-3.042
97700.000			-27.381			-3.042
97801.000			-27.381			-3.042
97901.000			-27.381			-3.042
98001.000			-27.380			-3.042
98102.000			-27.379			-3.042
98200.000			-27.378			-3.042
98300.000			-27.378			-3.042
98401.000			-27.377			-3.042
98500.000			-27.376			-3.042
98600.000			-27.376			-3.042
98701.000			-27.375			-3.042
98801.000			-27.375			-3.042
98901.000			-27.374			-3.042
99002.000			-27.374			-3.042
99100.000			-27.373			-3.041
99200.000			-27.371			-3.041
99301.000			-27.371			-3.041
99400.000			-27.370			-3.041
99500.000			-27.370			-3.041
99601.000			-27.370			-3.041
99701.000			-27.369			-3.041
99801.000			-27.368			-3.041
99901.000			-27.367			-3.041
100000.000			-27.367			-3.041
100100.000			-27.366			-3.041
100201.000			-27.366			-3.041
100300.000			-27.366			-3.041
100400.000			-27.364			-3.040
100502.000			-27.363			-3.040
100601.000			-27.363			-3.040
100701.000			-27.363			-3.040
100800.000			-27.362			-3.040
100900.000			-27.361			-3.040
101001.000			-27.361			-3.040
101100.000			-27.361			-3.040
101200.000			-27.361			-3.040
101301.000			-27.360			-3.040
101401.000			-27.359			-3.040
101501.000			-27.357			-3.040
101601.000			-27.356			-3.040
101700.000			-27.355			-3.039
101800.000			-27.356			-3.040
101901.000			-27.356			-3.040
102000.000			-27.355			-3.039
102100.000			-27.354			-3.039
102202.000			-27.353			-3.039
102301.000			-27.353			-3.039
102400.000			-27.353			-3.039
102501.000			-27.351			-3.039
102600.000			-27.350			-3.039
102700.000			-27.350			-3.039
102801.000			-27.349			-3.039
102900.000			-27.349			-3.039
103001.000			-27.349			-3.039
103102.000			-27.348			-3.039
103201.000			-27.348			-3.039
103300.000			-27.348			-3.039
103401.000			-27.347			-3.039
103500.000			-27.345			-3.038
103600.000			-27.346			-3.038
103700.000			-27.345			-3.038
103800.000			-27.344			-3.038
103902.000			-27.343			-3.038
104001.000			-27.342			-3.038
104100.000			-27.341			-3.038
104201.000			-27.342			-3.038
104300.000			-27.340			-3.038
104400.000			-27.339			-3.038
104501.000			-27.339			-3.038
104600.000			-27.339			-3.038
104701.000			-27.338			-3.038
104802.000			-27.337			-3.037
104901.000			-27.337			-3.037
105000.000			-27.336			-3.037
105101.000			-27.336			-3.037
105200.000			-27.335			-3.037
105300.000			-27.335			-3.037
105401.000			-27.335			-3.037
105500.000			-27.335			-3.037
105601.000			-27.334			-3.037
105702.000			-27.334			-3.037
105800.000			-27.331			-3.037
105900.000			-27.331			-3.037
106001.000			-27.332			-3.037
106100.000			-27.331			-3.037
106200.000			-27.329			-3.037
106301.000			-27.328			-3.036
106401.000			-27.328			-3.036
106501.000			-27.329			-3.037
106601.000			-27.327			-3.036
106700.000			-27.326			-3.036
106800.000			-27.326			-3.036
106900.000			-27.326			-3.036
107000.000			-27.326			-3.036
107101.000			-27.325			-3.036
107200.000			-27.324			-3.036
107301.000			-27.324			-3.036
107402.000			-27.323			-3.036
107500.000			-27.323			-3.036
107600.000			-27.321			-3.036
107701.000			-27.320			-3.036
107800.000			-27.319			-3.035
107900.000			-27.320			-3.036
108001.000			-27.319			-3.035
108101.000			-27.319			-3.035
108201.000			-27.318			-3.035
108301.000			-27.318			-3.035
108400.000			-27.317			-3.035
108500.000			-27.316			-3.035
108601.000			-27.316			-3.035
108700.000			-27.315			-3.035
108800.000			-27.315			-3.035
108901.000			-27.315			-3.035
109001.000			-27.314			-3.035
109101.000			-27.312			-3.035
109201.000			-27.312			-3.035
109300.000			-27.312			-3.035
109400.000			-27.311			-3.035
109501.000			-27.310			-3.034
109600.000			-27.310			-3.034
109700.000			-27.309			-3.034
109802.000			-27.308			-3.034
109901.000			-27.308			-3.034
110000.000			-27.308			-3.034
110100.000			-27.307			-3.034
110200.000			-27.306			-3.034
110301.000			-27.305			-3.034
110400.000			-27.304			-3.034
110500.000			-27.305			-3.034
110601.000			-27.304			-3.034
110701.000			-27.303			-3.034
110801.000			-27.304			-3.034
110901.000			-27.303			-3.034
111000.000			-27.302			-3.034
111100.000			-27.301			-3.033
111201.000			-27.300			-3.033
111300.000			-27.300			-3.033
111400.000			-27.300			-3.033
111502.000			-27.299			-3.033
111601.000			-27.299			-3.033
111700.000			-27.299			-3.033
111801.000			-27.298			-3.033
111900.000			-27.297			-3.033
112000.000			-27.297			-3.033
112101.000			-27.296			-3.033
112200.000			-27.296			-3.033
112301.000			-27.294			-3.033
112402.000			-27.295			-3.033
112500.000			-27.294			-3.033
112600.000			-27.293			-3.033
112701.000			-27.293			-3.033
112800.000			-27.293			-3.033
112900.000			-27.293			-3.033
113001.000			-27.292			-3.032
113100.000			-27.289			-3.032
113202.000			-27.289			-3.032
113301.000			-27.289			-3.032
113400.000			-27.289			-3.032
113501.000			-27.288			-3.032
113600.000			-27.287			-3.032
113700.000			-27.286			-3.032
113801.000			-27.287			-3.032
113900.000			-27.286			-3.032
114001.000			-27.285			-3.032
114102.000			-27.285			-3.032
114201.000			-27.285			-3.032
114300.000			-27.284			-3.032
114401.000			-27.283			-3.031
114500.000			-27.282			-3.031
114600.000			-27.282			-3.031
114701.000			-27.281			-3.031
114800.000			-27.280			-3.031
114901.000			-27.280			-3.031
115002.000			-27.280			-3.031
115100.000			-27.279			-3.031
115200.000			-27.279			-3.031
115301.000			-27.278			-3.031
115400.000			-27.278			-3.031
115500.000			-27.277			-3.031
115601.000			-27.276			-3.031
115700.000			-27.276			-3.031
115801.000			-27.275			-3.031
115902.000			-27.275			-3.031
116000.000			-27.274			-3.030
116100.000			-27.274			-3.030
116201.000			-27.273			-3.030
116300.000			-27.273			-3.030
116400.000			-27.273			-3.030
116500.000			-27.272			-3.030
116601.000			-27.270			-3.030
116702.000			-27.270			-3.030
116801.000			-27.271			-3.030
116900.000			-27.270			-3.030
117001.000			-27.269			-3.030
117100.000			-27.267			-3.030
117200.000			-27.267			-3.030
117301.000			-27.268			-3.030
117400.000			-27.266			-3.030
117501.000			-27.265			-3.029
117602.000			-27.264			-3.029
117700.000			-27.264			-3.029
117800.000			-27.263			-3.029
117901.000			-27.264			-3.029
118000.000			-27.263			-3.029
118100.000			-27.263			-3.029
118201.000			-27.262			-3.029
118300.000			-27.262			-3.029
118401.000			-27.261			-3.029
118502.000			-27.261			-3.029
118600.000			-27.260			-3.029
118700.000			-27.258			-3.029
118801.000			-27.258			-3.029
118900.000			-27.258			-3.029
119000.000			-27.257			-3.029
119101.000			-27.257			-3.029
119201.000			-27.257			-3.029
119301.000			-27.256			-3.028
119402.000			-27.255			-3.028
119500.000			-27.256			-3.028
119600.000			-27.254			-3.028
119700.000			-27.254			-3.028
119800.000			-27.253			-3.028
119901.000			-27.252			-3.028
120000.000			-27.252			-3.028
120101.000			-27.252			-3.028
120202.000			-27.252			-3.028
120301.000			-27.251			-3.028
120400.000			-27.250			-3.028
120501.000			-27.250			-3.028
120600.000			-27.250			-3.028
120700.000			-27.250			-3.028
120801.000			-27.250			-3.028
120900.000			-27.249			-3.028
121001.000			-27.247			-3.027
121102.000			-27.246			-3.027
121200.000			-27.245			-3.027
121300.000			-27.244			-3.027
121401.000			-27.244			-3.027
121500.000			-27.244			-3.027
121600.000			-27.244			-3.027
121701.000			-27.245			-3.027
121801.000			-27.243			-3.027
121901.000			-27.243			-3.027
122001.000			-27.242			-3.027
122100.000			-27.241			-3.027
122200.000			-27.240			-3.027
122301.000			-27.241			-3.027
122400.000			-27.240			-3.027
122500.000			-27.239			-3.027
122602.000			-27.239			-3.027
122701.000			-27.238			-3.026
122802.000			-27.238			-3.026
122900.000			-27.236			-3.026
123000.000			-27.236			-3.026
123101.000			-27.235			-3.026
123200.000			-27.236			-3.026
123300.000			-27.234			-3.026
123401.000			-27.235			-3.026
123501.000			-27.234			-3.026
123601.000			-27.234			-3.026
123701.000			-27.233			-3.026
123800.000			-27.233			-3.026
123900.000			-27.232			-3.026
124001.000			-27.231			-3.026
124100.000			-27.231			-3.026
124200.000			-27.231			-3.026
124302.000			-27.230			-3.026
124401.000			-27.230			-3.026
124500.000			-27.228			-3.025
124601.000			-27.227			-3.025
124700.000			-27.226			-3.025
124800.000			-27.226			-3.025
124901.000			-27.226			-3.025
125000.000			-27.226			-3.025
125100.000			-27.225			-3.025
125202.000			-27.224			-3.025
125301.000			-27.225			-3.025
125400.000			-27.224			-3.025
125501.000			-27.223			-3.025
125600.000			-27.222			-3.025
125700.000			-27.221			-3.025
125801.000			-27.220			-3.024
125900.000			-27.220			-3.024
126002.000			-27.221			-3.025
126101.000			-27.221			-3.025
126200.000			-27.219			-3.024
126301.000			-27.218			-3.024
126400.000			-27.218			-3.024
126500.000			-27.219			-3.024
126601.000			-27.219			-3.024
126700.000			-27.218			-3.024
126800.000			-27.216			-3.024
126902.000			-27.216			-3.024
127001.000			-27.215			-3.024
127100.000			-27.215			-3.024
127201.000			-27.215			-3.024
127300.000			-27.214			-3.024
127400.000			-27.213			-3.024
127501.000			-27.213			-3.024
127600.000			-27.211			-3.023
127701.000			-27.212			-3.024
127802.000			-27.212			-3.024
127900.000			-27.211			-3.023
128000.000			-27.211			-3.023
128101.000			-27.209			-3.023
128200.000			-27.208			-3.023
128300.000			-27.208			-3.023
128401.000			-27.207			-3.023
128501.000			-27.208			-3.023
128601.000			-27.207			-3.023
128702.000			-27.206			-3.023
128800.000			-27.204			-3.023
128900.000			-27.204			-3.023
129001.000			-27.204			-3.023
129100.000			-27.204			-3.023
129200.000			-27.203			-3.023
129300.000			-27.203			-3.023
129401.000			-27.202			-3.022
129502.000			-27.202			-3.022
129600.000			-27.202			-3.022
129700.000			-27.201			-3.022
129801.000			-27.199			-3.022
129900.000			-27.200			-3.022
130000.000			-27.199			-3.022
130101.000			-27.198			-3.022
130201.000			-27.198			-3.022
130301.000			-27.198			-3.022
130402.000			-27.197			-3.022
130500.000			-27.196			-3.022
130600.000			-27.196			-3.022
130701.000			-27.195			-3.022
130800.000			-27.194			-3.022
130900.000			-27.194			-3.022
131001.000			-27.194			-3.022
131101.000			-27.194			-3.022
131201.000			-27.193			-3.021
131301.000			-27.192			-3.021
131400.000			-27.191			-3.021
131500.000			-27.191			-3.021
131601.000			-27.191			-3.021
131700.000			-27.190			-3.021
131800.000			-27.189			-3.021
131901.000			-27.189			-3.021
132001.000			-27.188			-3.021
132101.000			-27.188			-3.021
132202.000			-27.187			-3.021
132300.000			-27.187			-3.021
132400.000			-27.187			-3.021
132500.000			-27.187			-3.021
132600.000			-27.186			-3.021
132701.000			-27.183			-3.020
132800.000			-27.184			-3.020
132900.000			-27.184			-3.020
133002.000			-27.184			-3.021
133101.000			-27.185			-3.021
133200.000			-27.183			-3.020
133301.000			-27.183			-3.020
133400.000			-27.182			-3.020
133500.000			-27.181			-3.020
133601.000			-27.180			-3.020
133700.000			-27.179			-3.020
133800.000			-27.179			-3.020
133902.000			-27.179			-3.020
134001.000			-27.180			-3.020
134100.000			-27.177			-3.020
134201.000			-27.177			-3.020
134300.000			-27.178			-3.020
134400.000			-27.177			-3.020
134501.000			-27.177			-3.020
134600.000			-27.176			-3.020
134700.000			-27.176			-3.020
134802.000			-27.176			-3.020
134901.000			-27.174			-3.019
135001.000			-27.173			-3.019
135101.000			-27.173			-3.019
135200.000			-27.173			-3.019
135300.000			-27.172			-3.019
135401.000			-27.172			-3.019
135500.000			-27.171			-3.019
135600.000			-27.170			-3.019
135700.000			-27.170			-3.019
135801.000			-27.170			-3.019
135902.000			-27.170			-3.019
136000.000			-27.169			-3.019
136100.000			-27.170			-3.019
136201.000			-27.169			-3.019
136300.000			-27.168			-3.019
136400.000			-27.168			-3.019
136501.000			-27.168			-3.019
136600.000			-27.167			-3.019
136701.000			-27.166			-3.018
136802.000			-27.166			-3.018
136901.000			-27.165			-3.018
137000.000			-27.164			-3.018
137101.000			-27.164			-3.018
137200.000			-27.164			-3.018
137300.000			-27.163			-3.018
137401.000			-27.163			-3.018
137500.000			-27.163			-3.018
137600.000			-27.163			-3.018
137702.000			-27.162			-3.018
137801.000			-27.161			-3.018
137900.000			-27.161			-3.018
138001.000			-27.161			-3.018
138100.000			-27.160			-3.018
138200.000			-27.160			-3.018
138301.000			-27.159			-3.018
138400.000			-27.159			-3.018
138500.000			-27.158			-3.018
138602.000			-27.158			-3.018
138701.000			-27.157			-3.017
138800.000			-27.156			-3.017
138900.000			-27.156			-3.017
139000.000			-27.156			-3.017
139101.000			-27.155			-3.017
139200.000			-27.154			-3.017
139300.000			-27.155			-3.017
139401.000			-27.153			-3.017
139501.000			-27.152			-3.017
139601.000			-27.152			-3.017
139702.000			-27.152			-3.017
139800.000			-27.152			-3.017
139900.000			-27.152			-3.017
140001.000			-27.151			-3.017
140100.000			-27.151			-3.017
140200.000			-27.151			-3.017
140301.000			-27.150			-3.017
140400.000			-27.149			-3.017
140501.000			-27.149			-3.017
140602.000			-27.149			-3.017
140700.000			-27.147			-3.016
140800.000			-27.147			-3.016
140901.000			-27.146			-3.016
141000.000			-27.145			-3.016
141100.000			-27.145			-3.016
141201.000			-27.144			-3.016
141300.000			-27.144			-3.016
141401.000			-27.144			-3.016
141502.000			-27.144			-3.016
141600.000			-27.143			-3.016
141700.000			-27.142			-3.016
141801.000			-27.141			-3.016
141900.000			-27.141			-3.016
142000.000			-27.141			-3.016
142100.000			-27.140			-3.016
142200.000			-27.140			-3.016
142302.000			-27.140			-3.016
142401.000			-27.140			-3.016
142500.000			-27.139			-3.015
142601.000			-27.138			-3.015
142700.000			-27.138			-3.015
142800.000			-27.138			-3.015
142901.000			-27.136			-3.015
143000.000			-27.136			-3.015
143100.000			-27.137			-3.015
143202.000			-27.136			-3.015
143301.000			-27.135			-3.015
143401.000			-27.135			-3.015
143501.000			-27.135			-3.015
143600.000			-27.135			-3.015
143700.000			-27.134			-3.015
143801.000			-27.134			-3.015
143900.000			-27.133			-3.015
144000.000			-27.133			-3.015
144101.000			-27.133			-3.015
144201.000			-27.132			-3.015
144301.000			-27.131			-3.015
144401.000			-27.132			-3.015
144500.000			-27.130			-3.014
144600.000			-27.130			-3.014
144701.000			-27.129			-3.014
144800.000			-27.129			-3.014
144900.000			-27.127			-3.014
145001.000			-27.127			-3.014
145101.000			-27.128			-3.014
145202.000			-27.127			-3.014
145300.000			-27.126			-3.014
145400.000			-27.127			-3.014
145501.000			-27.125			-3.014
145600.000			-27.124			-3.014
145700.000			-27.125			-3.014
145801.000			-27.125			-3.014
145900.000			-27.124			-3.014
146001.000			-27.124			-3.014
146102.000			-27.125			-3.014
146200.000			-27.124			-3.014
146300.000			-27.122			-3.014
146401.000			-27.122			-3.014
146500.000			-27.121			-3.013
146600.000			-27.122			-3.014
146701.000			-27.121			-3.013
146800.000			-27.121			-3.013
146901.000			-27.120			-3.013
147002.000			-27.120			-3.013
147101.000			-27.120			-3.013
147200.000			-27.119			-3.013
147301.000			-27.118			-3.013
147400.000			-27.117			-3.013
147500.000			-27.118			-3.013
147601.000			-27.117			-3.013
147700.000			-27.117			-3.013
147801.000			-27.116			-3.013
147902.000			-27.116			-3.013
148001.000			-27.115			-3.013
148100.000			-27.115			-3.013
148201.000			-27.114			-3.013
148300.000			-27.114			-3.013
148400.000			-27.114			-3.013
148500.000			-27.113			-3.013
148600.000			-27.113			-3.013
148701.000			-27.112			-3.012
148801.000			-27.112			-3.012
148901.000			-27.113			-3.013
149001.000			-27.112			-3.012
149100.000			-27.111			-3.012
149200.000			-27.112			-3.012
149301.000			-27.112			-3.012
149400.000			-27.109			-3.012
149500.000			-27.110			-3.012
149601.000			-27.110			-3.012
149701.000			-27.110			-3.012
149801.000			-27.109			-3.012
149902.000			-27.107			-3.012
150000.000			-27.108			-3.012
150100.000			-27.107			-3.012
150201.000			-27.108			-3.012
150300.000			-27.107			-3.012
150400.000			-27.106			-3.012
150501.000			-27.106			-3.012
150601.000			-27.106			-3.012
150701.000			-27.106			-3.012
150802.000			-27.105			-3.012
150900.000			-27.105			-3.012
151000.000			-27.105			-3.012
151101.000			-27.104			-3.012
151200.000			-27.104			-3.012
151300.000			-27.104			-3.012
151401.000			-27.103			-3.011
151501.000			-27.103			-3.011
151602.000			-27.101			-3.011
151701.000			-27.101			-3.011
151800.000			-27.102			-3.011
151901.000			-27.102			-3.011
152000.000			-27.101			-3.011
152100.000			-27.100			-3.011
152201.000			-27.100			-3.011
152300.000			-27.098			-3.011
152400.000			-27.097			-3.011
152502.000			-27.097			-3.011
152601.000			-27.097			-3.011
152700.000			-27.097			-3.011
152801.000			-27.097			-3.011
152900.000			-27.096			-3.011
153000.000			-27.096			-3.011
153101.000			-27.095			-3.011
153200.000			-27.095			-3.011
153300.000			-27.094			-3.010
153402.000			-27.094			-3.010
153501.000			-27.094			-3.010
153601.000			-27.093			-3.010
153701.000			-27.094			-3.010
153800.000			-27.093			-3.010
153900.000			-27.092			-3.010
154001.000			-27.091			-3.010
154100.000			-27.091			-3.010
154200.000			-27.091			-3.010
154301.000			-27.091			-3.010
154401.000			-27.090			-3.010
154501.000			-27.089			-3.010
154601.000			-27.088			-3.010
154700.000			-27.088			-3.010
154800.000			-27.088			-3.010
154900.000			-27.086			-3.010
155000.000			-27.086			-3.010
155101.000			-27.086			-3.010
155200.000			-27.086			-3.010
155301.000			-27.086			-3.010
155402.000			-27.086			-3.010
155501.000			-27.085			-3.009
155600.000			-27.085			-3.009
155701.000			-27.085			-3.009
155800.000			-27.085			-3.009
155900.000			-27.085			-3.009
156001.000			-27.083			-3.009
156100.000			-27.082			-3.009
156200.000			-27.082			-3.009
156302.000			-27.081			-3.009
156401.000			-27.081			-3.009
156500.000			-27.081			-3.009
156601.000			-27.081			-3.009
156700.000			-27.080			-3.009
156800.000			-27.079			-3.009
156901.000			-27.078			-3.009
157000.000			-27.078			-3.009
157100.000			-27.078			-3.009
157202.000			-27.077			-3.009
157301.000			-27.077			-3.009
157400.000			-27.078			-3.009
157501.000			-27.076			-3.008
157600.000			-27.075			-3.008
157700.000			-27.075			-3.008
157801.000			-27.075			-3.008
157900.000			-27.075			-3.008
158000.000			-27.075			-3.008
158102.000			-27.075			-3.008
158201.000			-27.073			-3.008
158302.000			-27.073			-3.008
158400.000			-27.072			-3.008
158500.000			-27.072			-3.008
158601.000			-27.071			-3.008
158700.000			-27.072			-3.008
158800.000			-27.072			-3.008
158901.000			-27.070			-3.008
159000.000			-27.071			-3.008
159101.000			-27.070			-3.008
159202.000			-27.070			-3.008
159301.000			-27.069			-3.008
159400.000			-27.069			-3.008
159501.000			-27.068			-3.008
159600.000			-27.068			-3.008
159700.000			-27.068			-3.008
159801.000			-27.067			-3.007
159900.000			-27.068			-3.008
160000.000			-27.067			-3.007
160102.000			-27.067			-3.007
160201.000			-27.066			-3.007
160300.000			-27.065			-3.007
160401.000			-27.065			-3.007
160500.000			-27.064			-3.007
160600.000			-27.064			-3.007
160701.000			-27.064			-3.007
160800.000			-27.064			-3.007
160900.000			-27.063			-3.007
161002.000			-27.062			-3.007
161101.000			-27.062			-3.007
161200.000			-27.061			-3.007
161300.000			-27.062			-3.007
161400.000			-27.061			-3.007
161501.000			-27.060			-3.007
161600.000			-27.060			-3.007
161700.000			-27.059			-3.007
161801.000			-27.060			-3.007
161901.000			-27.059			-3.007
162001.000			-27.058			-3.006
162102.000			-27.057			-3.006
162200.000			-27.058			-3.006
162300.000			-27.058			-3.006
162401.000			-27.058			-3.006
162500.000			-27.057			-3.006
162600.000			-27.056			-3.006
162701.000			-27.056			-3.006
162800.000			-27.055			-3.006
162901.000			-27.054			-3.006
163002.000			-27.055			-3.006
163100.000			-27.054			-3.006
163200.000			-27.053			-3.006
163301.000			-27.054			-3.006
163400.000			-27.054			-3.006
163500.000			-27.053			-3.006
163601.000			-27.053			-3.006
163700.000			-27.052			-3.006
163801.000			-27.051			-3.006
163902.000			-27.051			-3.006
164000.000			-27.050			-3.006
164100.000			-27.051			-3.006
164201.000			-27.051			-3.006
164300.000			-27.051			-3.006
164400.000			-27.050			-3.006
164500.000			-27.048			-3.005
164600.000			-27.049			-3.005
164702.000			-27.049			-3.005
164801.000			-27.047			-3.005
164901.000			-27.047			-3.005
165001.000			-27.047			-3.005
165100.000			-27.046			-3.005
165200.000			-27.046			-3.005
165301.000			-27.046			-3.005
165400.000			-27.045			-3.005
165500.000			-27.044			-3.005
165601.000			-27.044			-3.005
165701.000			-27.043			-3.005
165801.000			-27.043			-3.005
165901.000			-27.043			-3.005
166000.000			-27.043			-3.005
166100.000			-27.041			-3.005
166201.000			-27.041			-3.005
166300.000			-27.041			-3.005
166400.000			-27.040			-3.004
166501.000			-27.040			-3.004
166601.000			-27.039			-3.004
166701.000			-27.038			-3.004
166802.000			-27.038			-3.004
166900.000			-27.037			-3.004
167000.000			-27.036			-3.004
167101.000			-27.036			-3.004
167200.000			-27.037			-3.004
167300.000			-27.037			-3.004
167401.000			-27.037			-3.004
167500.000			-27.037			-3.004
167602.000			-27.035			-3.004
167701.000			-27.035			-3.004
167800.000			-27.035			-3.004
167901.000			-27.034			-3.004
168000.000			-27.033			-3.004
168100.000			-27.033			-3.004
168201.000			-27.033			-3.004
168300.000			-27.032			-3.004
168400.000			-27.032			-3.004
168502.000			-27.032			-3.004
168601.000			-27.031			-3.003
168701.000			-27.031			-3.003
168801.000			-27.031			-3.003
168900.000			-27.029			-3.003
169000.000			-27.028			-3.003
169101.000			-27.029			-3.003
169200.000			-27.029			-3.003
169300.000			-27.029			-3.003
169401.000			-27.028			-3.003
169501.000			-27.028			-3.003
169601.000			-27.027			-3.003
169701.000			-27.026			-3.003
169800.000			-27.026			-3.003
169900.000			-27.026			-3.003
170001.000			-27.026			-3.003
170100.000			-27.024			-3.003
170200.000			-27.024			-3.003
170301.000			-27.024			-3.003
170401.000			-27.024			-3.003
170501.000			-27.023			-3.003
170601.000			-27.023			-3.003
170700.000			-27.023			-3.003
170800.000			-27.021			-3.002
170900.000			-27.021			-3.002
171000.000			-27.023			-3.003
171101.000			-27.022			-3.002
171200.000			-27.021			-3.002
171301.000			-27.020			-3.002
171402.000			-27.020			-3.002
171501.000			-27.020			-3.002
171600.000			-27.020			-3.002
171701.000			-27.019			-3.002
171800.000			-27.019			-3.002
171900.000			-27.019			-3.002
172001.000			-27.018			-3.002
172100.000			-27.017			-3.002
172200.000			-27.017			-3.002
172302.000			-27.017			-3.002
172401.000			-27.017			-3.002
172500.000			-27.015			-3.002
172601.000			-27.016			-3.002
172700.000			-27.016			-3.002
172800.000			-27.015			-3.002
172901.000			-27.015			-3.002
173000.000			-27.015			-3.002
173100.000			-27.014			-3.002
173202.000			-27.015			-3.002
173301.000			-27.014			-3.002
173400.000			-27.013			-3.001
173501.000			-27.014			-3.002
173600.000			-27.014			-3.002
173700.000			-27.013			-3.001
173801.000			-27.013			-3.001
173900.000			-27.012			-3.001
174000.000			-27.011			-3.001
174102.000			-27.011			-3.001
174201.000			-27.010			-3.001
174301.000			-27.011			-3.001
174400.000			-27.011			-3.001
174500.000			-27.010			-3.001
174601.000			-27.010			-3.001
174700.000			-27.008			-3.001
174800.000			-27.008			-3.001
174901.000			-27.008			-3.001
175001.000			-27.008			-3.001
175101.000			-27.007			-3.001
175201.000			-27.007			-3.001
175300.000			-27.006			-3.001
175400.000			-27.006			-3.001
175501.000			-27.006			-3.001
175600.000			-27.005			-3.001
175700.000			-27.005			-3.001
175801.000			-27.005			-3.001
175901.000			-27.004			-3.000
176001.000			-27.005			-3.001
176102.000			-27.004			-3.000
176200.000			-27.004			-3.000
176300.000			-27.005			-3.001
176401.000			-27.003			-3.000
176500.000			-27.003			-3.000
176600.000			-27.002			-3.000
176701.000			-27.002			-3.000
176801.000			-27.002			-3.000
176901.000			-27.001			-3.000
177002.000			-27.001			-3.000
177100.000			-27.001			-3.000
177200.000			-27.000			-3.000
177300.000			-27.000			-3.000
177400.000			-27.000			-3.000
177501.000			-27.000			-3.000
177600.000			-27.000			-3.000
177700.000			-27.000			-3.000
177802.000			-27.000			-3.000
177901.000			-27.000			-3.000
178001.000			-26.999			-3.000
178101.000			-26.998			-3.000
178200.000			-26.997			-3.000
178300.000			-26.996			-3.000
178401.000			-26.997			-3.000
178500.000			-26.997			-3.000
178600.000			-26.998			-3.000
178701.000			-26.997			-3.000
178801.000			-26.997			-3.000
178901.000			-26.996			-3.000
179002.000			-26.994			-2.999
179100.000			-26.994			-2.999
179200.000			-26.995			-2.999
179301.000			-26.995			-2.999
179400.000			-26.993			-2.999
179500.000			-26.993			-2.999
179601.000			-26.994			-2.999
179700.000			-26.994			-2.999
179800.000			-26.993			-2.999
179902.000			-26.993			-2.999
180001.000			-26.990			-2.999
180100.000			-26.991			-2.999
180201.000			-26.992			-2.999
180300.000			-26.991			-2.999
180400.000			-26.990			-2.999
180500.000			-26.990			-2.999
180600.000			-26.989			-2.999
180701.000			-26.989			-2.999
180801.000			-26.989			-2.999
180901.000			-26.988			-2.999
181002.000			-26.989			-2.999
181100.000			-26.988			-2.999
181200.000			-26.988			-2.999
181301.000			-26.987			-2.999
181400.000			-26.985			-2.998
181500.000			-26.986			-2.998
181601.000			-26.985			-2.998
181700.000			-26.985			-2.998
181801.000			-26.985			-2.998
181902.000			-26.985			-2.998
182001.000			-26.985			-2.998
182100.000			-26.984			-2.998
182201.000			-26.984			-2.998
182300.000			-26.984			-2.998
182400.000			-26.984			-2.998
182501.000			-26.983			-2.998
182600.000			-26.982			-2.998
182700.000			-26.983			-2.998
182802.000			-26.982			-2.998
182901.000			-26.982			-2.998
183001.000			-26.981			-2.998
183101.000			-26.981			-2.998
183200.000			-26.980			-2.998
183300.000			-26.980			-2.998
183401.000			-26.979			-2.998
183500.000			-26.980			-2.998
183600.000			-26.979			-2.998
183700.000			-26.979			-2.998
183801.000			-26.979			-2.998
183902.000			-26.978			-2.998
184001.000			-26.978			-2.998
184100.000			-26.978			-2.998
184201.000			-26.977			-2.997
184300.000			-26.977			-2.997
184400.000			-26.978			-2.998
184501.000			-26.976			-2.997
184600.000			-26.975			-2.997
184700.000			-26.976			-2.997
184801.000			-26.976			-2.997
184901.000			-26.976			-2.997
185001.000			-26.975			-2.997
185101.000			-26.974			-2.997
185200.000			-26.975			-2.997
185300.000			-26.974			-2.997
185401.000			-26.973			-2.997
185500.000			-26.973			-2.997
185600.000			-26.971			-2.997
185701.000			-26.972			-2.997
185800.000			-26.972			-2.997
185901.000			-26.972			-2.997
186002.000			-26.971			-2.997
186100.000			-26.971			-2.997
186200.000			-26.970			-2.997
186301.000			-26.969			-2.997
186400.000			-26.970			-2.997
186500.000			-26.970			-2.997
186601.000			-26.970			-2.997
186700.000			-26.969			-2.997
186800.000			-26.969			-2.997
186902.000			-26.969			-2.997
187001.000			-26.968			-2.996
187101.000			-26.968			-2.996
187200.000			-26.968			-2.996
187300.000			-26.966			-2.996
187401.000			-26.966			-2.996
187500.000			-26.966			-2.996
187600.000			-26.965			-2.996
187701.000			-26.965			-2.996
187800.000			-26.965			-2.996
187901.000			-26.965			-2.996
188002.000			-26.964			-2.996
188101.000			-26.964			-2.996
188200.000			-26.964			-2.996
188301.000			-26.963			-2.996
188400.000			-26.962			-2.996
188500.000			-26.963			-2.996
188601.000			-26.962			-2.996
188700.000			-26.962			-2.996
188800.000			-26.962			-2.996
188902.000			-26.962			-2.996
189001.000			-26.961			-2.996
189101.000			-26.961			-2.996
189201.000			-26.960			-2.996
189300.000			-26.960			-2.996
189400.000			-26.959			-2.995
189501.000			-26.959			-2.995
189600.000			-26.959			-2.995
189700.000			-26.959			-2.995
189801.000			-26.959			-2.995
189901.000			-26.958			-2.995
190002.000			-26.957			-2.995
190101.000			-26.957			-2.995
190200.000			-26.957			-2.995
190301.000			-26.956			-2.995
190400.000			-26.957			-2.995
190500.000			-26.956			-2.995
190601.000			-26.955			-2.995
190700.000			-26.954			-2.995
190800.000			-26.955			-2.995
190901.000			-26.954			-2.995
191001.000			-26.954			-2.995
191101.000			-26.953			-2.995
191201.000			-26.953			-2.995
191300.000			-26.952			-2.995
191400.000			-26.951			-2.995
191501.000			-26.951			-2.995
191600.000			-26.952			-2.995
191700.000			-26.952			-2.995
191801.000			-26.950			-2.994
191901.000			-26.951			-2.995
192001.000			-26.950			-2.994
192102.000			-26.949			-2.994
192200.000			-26.949			-2.994
192300.000			-26.949			-2.994
192401.000			-26.949			-2.994
192500.000			-26.948			-2.994
192600.000			-26.948			-2.994
192701.000			-26.947			-2.994
192800.000			-26.947			-2.994
192901.000			-26.947			-2.994
193002.000			-26.947			-2.994
193101.000			-26.946			-2.994
193200.000			-26.945			-2.994
193300.000			-26.945			-2.994
193400.000			-26.946			-2.994
193501.000			-26.946			-2.994
193600.000			-26.945			-2.994
193700.000			-26.944			-2.994
193801.000			-26.944			-2.994
193901.000			-26.944			-2.994
194001.000			-26.943			-2.994
194102.000			-26.943			-2.994
194200.000			-26.943			-2.994
194300.000			-26.943			-2.994
194401.000			-26.942			-2.994
194500.000			-26.941			-2.993
194600.000			-26.941			-2.993
194701.000			-26.940			-2.993
194800.000			-26.940			-2.993
194901.000			-26.940			-2.993
195002.000			-26.939			-2.993
195101.000			-26.939			-2.993
195200.000			-26.940			-2.993
195301.000			-26.939			-2.993
195400.000			-26.938			-2.993
195500.000			-26.938			-2.993
195601.000			-26.938			-2.993
195700.000			-26.938			-2.993
195800.000			-26.937			-2.993
195902.000			-26.937			-2.993
196001.000			-26.937			-2.993
196101.000			-26.936			-2.993
196201.000			-26.936			-2.993
196300.000			-26.935			-2.993
196400.000			-26.936			-2.993
196500.000			-26.935			-2.993
196600.000			-26.934			-2.993
196701.000			-26.935			-2.993
196800.000			-26.934			-2.993
196901.000			-26.932			-2.992
197002.000			-26.931			-2.992
197101.000			-26.932			-2.992
197200.000			-26.933			-2.993
197301.000			-26.932			-2.992
197400.000			-26.931			-2.992
197500.000			-26.932			-2.992
197601.000			-26.932			-2.992
197700.000			-26.931			-2.992
197800.000			-26.930			-2.992
197902.000			-26.929			-2.992
198001.000			-26.929			-2.992
198101.000			-26.929			-2.992
198201.000			-26.929			-2.992
198300.000			-26.929			-2.992
198400.000			-26.928			-2.992
198501.000			-26.928			-2.992
198600.000			-26.928			-2.992
198700.000			-26.927			-2.992
198801.000			-26.926			-2.992
198901.000			-26.927			-2.992
199001.000			-26.927			-2.992
199102.000			-26.925			-2.992
199200.000			-26.924			-2.992
199300.000			-26.925			-2.992
199401.000			-26.925			-2.992
199500.000			-26.925			-2.992
199600.000			-26.923			-2.991
199700.000			-26.923			-2.991
199800.000			-26.923			-2.991
199902.000			-26.922			-2.991
200001.000			-26.921			-2.991
200101.000			-26.922			-2.991
200201.000			-26.922			-2.991
200300.000			-26.921			-2.991
200400.000			-26.921			-2.991
200501.000			-26.920			-2.991
200600.000			-26.920			-2.991
200700.000			-26.920			-2.991
200801.000			-26.919			-2.991
200901.000			-26.919			-2.991
201001.000			-26.918			-2.991
201101.000			-26.918			-2.991
201200.000			-26.918			-2.991
201300.000			-26.918			-2.991
201401.000			-26.917			-2.991
201500.000			-26.916			-2.991
201600.000			-26.918			-2.991
201701.000			-26.917			-2.991
201801.000			-26.916			-2.991
201901.000			-26.916			-2.991
202001.000			-26.915			-2.991
202100.000			-26.915			-2.991
202200.000			-26.914			-2.990
202301.000			-26.914			-2.990
202400.000			-26.914			-2.990
202500.000			-26.913			-2.990
202601.000			-26.913			-2.990
202701.000			-26.913			-2.990
202802.000			-26.912			-2.990
202901.000			-26.912			-2.990
203000.000			-26.911			-2.990
203101.000			-26.912			-2.990
203200.000			-26.912			-2.990
203300.000			-26.911			-2.990
203401.000			-26.912			-2.990
203500.000			-26.911			-2.990
203601.000			-26.910			-2.990
203702.000			-26.911			-2.990
203801.000			-26.910			-2.990
203900.000			-26.908			-2.990
204001.000			-26.909			-2.990
204100.000			-26.908			-2.990
204200.000			-26.908			-2.990
204301.000			-26.908			-2.990
204400.000			-26.907			-2.990
204500.000			-26.909			-2.990
204602.000			-26.908			-2.990
204701.000			-26.907			-2.990
204800.000			-26.906			-2.990
204901.000			-26.906			-2.990
205000.000			-26.906			-2.990
205100.000			-26.906			-2.990
205201.000			-26.905			-2.989
205300.000			-26.906			-2.990
205400.000			-26.905			-2.989
205502.000			-26.905			-2.989
205601.000			-26.904			-2.989
205701.000			-26.904			-2.989
205801.000			-26.903			-2.989
205900.000			-26.904			-2.989
206000.000			-26.904			-2.989
206100.000			-26.903			-2.989
206200.000			-26.902			-2.989
206301.000			-26.901			-2.989
206401.000			-26.901			-2.989
206501.000			-26.901			-2.989
206602.000			-26.901			-2.989
206700.000			-26.902			-2.989
206800.000			-26.901			-2.989
206901.000			-26.899			-2.989
207000.000			-26.899			-2.989
207100.000			-26.899			-2.989
207201.000			-26.899			-2.989
207300.000			-26.899			-2.989
207401.000			-26.899			-2.989
207502.000			-26.899			-2.989
207601.000			-26.897			-2.989
207700.000			-26.897			-2.989
207801.000			-26.898			-2.989
207900.000			-26.898			-2.989
208000.000			-26.898			-2.989
208101.000			-26.896			-2.988
208200.000			-26.895			-2.988
208300.000			-26.895			-2.988
208402.000			-26.896			-2.988
208501.000			-26.896			-2.988
208601.000			-26.896			-2.988
208701.000			-26.895			-2.988
208800.000			-26.895			-2.988
208900.000			-26.894			-2.988
209001.000			-26.894			-2.988
209100.000			-26.894			-2.988
209200.000			-26.894			-2.988
209300.000			-26.894			-2.988
209401.000			-26.894			-2.988
209502.000			-26.893			-2.988
209601.000			-26.892			-2.988
209700.000			-26.892			-2.988
209801.000			-26.892			-2.988
209900.000			-26.891			-2.988
210000.000			-26.892			-2.988
210101.000			-26.891			-2.988
210200.000			-26.891			-2.988
210300.000			-26.890			-2.988
210402.000			-26.889			-2.988
210501.000			-26.889			-2.988
210600.000			-26.889			-2.988
210701.000			-26.889			-2.988
210800.000			-26.889			-2.988
210900.000			-26.888			-2.988
211001.000			-26.888			-2.988
211100.000			-26.888			-2.988
211200.000			-26.887			-2.987
211302.000			-26.887			-2.987
211401.000			-26.886			-2.987
211501.000			-26.886			-2.987
211601.000			-26.886			-2.987
211700.000			-26.887			-2.987
211800.000			-26.886			-2.987
211901.000			-26.885			-2.987
212000.000			-26.885			-2.987
212100.000			-26.885			-2.987
212201.000			-26.884			-2.987
212301.000			-26.884			-2.987
212402.000			-26.883			-2.987
212501.000			-26.883			-2.987
212600.000			-26.884			-2.987
212701.000			-26.883			-2.987
212800.000			-26.882			-2.987
212900.000			-26.881			-2.987
213001.000			-26.882			-2.987
213100.000			-26.883			-2.987
213200.000			-26.881			-2.987
213302.000			-26.881			-2.987
213401.000			-26.880			-2.987
213500.000			-26.880			-2.987
213601.000			-26.880			-2.987
213700.000			-26.880			-2.987
213800.000			-26.879			-2.987
213901.000			-26.880			-2.987
214000.000			-26.879			-2.987
214100.000			-26.878			-2.986
214202.000			-26.877			-2.986
214301.000			-26.878			-2.986
214401.000			-26.878			-2.986
214501.000			-26.878			-2.986
214600.000			-26.877			-2.986
214700.000			-26.878			-2.986
214801.000			-26.878			-2.986
214900.000			-26.877			-2.986
215000.000			-26.877			-2.986
215101.000			-26.877			-2.986
215201.000			-26.875			-2.986
215301.000			-26.875			-2.986
215401.000			-26.874			-2.986
215500.000			-26.874			-2.986
215600.000			-26.873			-2.986
215700.000			-26.873			-2.986
215800.000			-26.873			-2.986
215901.000			-26.872			-2.986
216000.000			-26.873			-2.986
216100.000			-26.872			-2.986
216202.000			-26.872			-2.986
216301.000			-26.873			-2.986
216400.000			-26.871			-2.986
216501.000			-26.871			-2.986
216600.000			-26.871			-2.986
216700.000			-26.871			-2.986
216801.000			-26.871			-2.986
216900.000			-26.870			-2.986
217000.000			-26.870			-2.986
217102.000			-26.868			-2.985
217201.000			-26.869			-2.985
217301.000			-26.869			-2.985
217401.000			-26.869			-2.985
217500.000			-26.869			-2.985
217600.000			-26.868			-2.985
217701.000			-26.867			-2.985
217800.000			-26.868			-2.985
217900.000			-26.867			-2.985
218001.000			-26.867			-2.985
218101.000			-26.867			-2.985
218201.000			-26.867			-2.985
218302.000			-26.866			-2.985
218400.000			-26.865			-2.985
218500.000			-26.864			-2.985
218601.000			-26.864			-2.985
218700.000			-26.865			-2.985
218800.000			-26.865			-2.985
218900.000			-26.865			-2.985
219000.000			-26.864			-2.985
219102.000			-26.864			-2.985
219201.000			-26.864			-2.985
219301.000			-26.864			-2.985
219401.000			-26.863			-2.985
219500.000			-26.862			-2.985
219600.000			-26.862			-2.985
219701.000			-26.862			-2.985
219800.000			-26.861			-2.985
219900.000			-26.861			-2.985
220001.000			-26.860			-2.984
220101.000			-26.860			-2.984
220201.000			-26.860			-2.984
220301.000			-26.860			-2.984
220400.000			-26.860			-2.984
220500.000			-26.860			-2.984
220601.000			-26.859			-2.984
220700.000			-26.858			-2.984
220800.000			-26.858			-2.984
220901.000			-26.859			-2.984
221001.000			-26.859			-2.984
221101.000			-26.857			-2.984
221202.000			-26.857			-2.984
221300.000			-26.857			-2.984
221400.000			-26.856			-2.984
221501.000			-26.857			-2.984
221600.000			-26.856			-2.984
221700.000			-26.856			-2.984
221801.000			-26.857			-2.984
221900.000			-26.855			-2.984
222002.000			-26.855			-2.984
222101.000			-26.854			-2.984
222200.000			-26.854			-2.984
222301.000			-26.854			-2.984
222400.000			-26.854			-2.984
222500.000			-26.855			-2.984
222601.000			-26.853			-2.984
222700.000			-26.852			-2.984
222800.000			-26.853			-2.984
222902.000			-26.852			-2.984
223001.000			-26.852			-2.984
223101.000			-26.852			-2.984
223201.000			-26.852			-2.984
223300.000			-26.852			-2.984
223400.000			-26.852			-2.984
223501.000			-26.851			-2.983
223600.000			-26.851			-2.983
223700.000			-26.850			-2.983
223801.000			-26.849			-2.983
223901.000			-26.849			-2.983
224001.000			-26.850			-2.983
224101.000			-26.849			-2.983
224200.000			-26.848			-2.983
224300.000			-26.848			-2.983
224401.000			-26.848			-2.983
224500.000			-26.847			-2.983
224600.000			-26.846			-2.983
224701.000			-26.847			-2.983
224801.000			-26.847			-2.983
224901.000			-26.847			-2.983
225002.000			-26.845			-2.983
225100.000			-26.846			-2.983
225200.000			-26.846			-2.983
225300.000			-26.846			-2.983
225400.000			-26.845			-2.983
225501.000			-26.845			-2.983
225600.000			-26.845			-2.983
225700.000			-26.845			-2.983
225802.000			-26.844			-2.983
225901.000			-26.844			-2.983
226001.000			-26.844			-2.983
226101.000			-26.844			-2.983
226200.000			-26.843			-2.983
226300.000			-26.843			-2.983
226401.000			-26.842			-2.982
226500.000			-26.842			-2.982
226600.000			-26.841			-2.982
226702.000			-26.841			-2.982
226801.000			-26.841			-2.982
226901.000			-26.840			-2.982
227001.000			-26.841			-2.982
227100.000			-26.840			-2.982
227200.000			-26.839			-2.982
227301.000			-26.840			-2.982
227400.000			-26.839			-2.982
227500.000			-26.838			-2.982
227601.000			-26.837			-2.982
227701.000			-26.838			-2.982
227801.000			-26.838			-2.982
227902.000			-26.838			-2.982
228000.000			-26.837			-2.982
228100.000			-26.837			-2.982
228201.000			-26.836			-2.982
228300.000			-26.836			-2.982
228400.000			-26.836			-2.982
228500.000			-26.836			-2.982
228600.000			-26.836			-2.982
228702.000			-26.834			-2.982
228801.000			-26.834			-2.982
228901.000			-26.833			-2.981
229001.000			-26.833			-2.981
229100.000			-26.833			-2.981
229200.000			-26.834			-2.982
229301.000			-26.834			-2.982
229400.000			-26.832			-2.981
229500.000			-26.831			-2.981
229602.000			-26.832			-2.981
229701.000			-26.831			-2.981
229801.000			-26.831			-2.981
229901.000			-26.832			-2.981
230000.000			-26.832			-2.981
230100.000			-26.830			-2.981
230201.000			-26.832			-2.981
230300.000			-26.831			-2.981
230400.000			-26.831			-2.981
230501.000			-26.829			-2.981
230601.000			-26.829			-2.981
230701.000			-26.830			-2.981
230802.000			-26.829			-2.981
230900.000			-26.828			-2.981
231000.000			-26.827			-2.981
231101.000			-26.828			-2.981
231200.000			-26.828			-2.981
231300.000			-26.829			-2.981
231401.000			-26.827			-2.981
231501.000			-26.826			-2.981
231602.000			-26.826			-2.981
231701.000			-26.825			-2.981
231800.000			-26.825			-2.981
231901.000			-26.826			-2.981
232000.000			-26.825			-2.981
232100.000			-26.824			-2.980
232201.000			-26.824			-2.980
232300.000			-26.824			-2.980
232400.000			-26.824			-2.980
232502.000			-26.824			-2.980
232601.000			-26.823			-2.980
232700.000			-26.824			-2.980
232801.000			-26.824			-2.980
232900.000			-26.823			-2.980
233000.000			-26.823			-2.980
233101.000			-26.823			-2.980
233200.000			-26.823			-2.980
233300.000			-26.823			-2.980
233402.000			-26.821			-2.980
233501.000			-26.821			-2.980
233600.000			-26.820			-2.980
233701.000			-26.820			-2.980
233800.000			-26.820			-2.980
233900.000			-26.820			-2.980
234001.000			-26.821			-2.980
234100.000			-26.820			-2.980
234200.000			-26.819			-2.980
234302.000			-26.819			-2.980
234401.000			-26.819			-2.980
234501.000			-26.818			-2.980
234601.000			-26.818			-2.980
234700.000			-26.818			-2.980
234800.000			-26.818			-2.980
234900.000			-26.818			-2.980
235000.000			-26.817			-2.980
235101.000			-26.816			-2.980
235200.000			-26.815			-2.979
235301.000			-26.816			-2.980
235402.000			-26.817			-2.980
235501.000			-26.816			-2.980
235600.000			-26.816			-2.980
235701.000			-26.816			-2.980
235800.000			-26.816			-2.980
235900.000			-26.815			-2.979
236001.000			-26.815			-2.979
236100.000			-26.815			-2.979
236200.000			-26.815			-2.979
236302.000			-26.814			-2.979
236401.000			-26.813			-2.979
236500.000			-26.813			-2.979
236601.000			-26.813			-2.979
236700.000			-26.812			-2.979
236800.000			-26.812			-2.979
236901.000			-26.811			-2.979
237000.000			-26.812			-2.979
237100.000			-26.812			-2.979
237202.000			-26.811			-2.979
237301.000			-26.811			-2.979
237400.000			-26.811			-2.979
237501.000			-26.811			-2.979
237600.000			-26.812			-2.979
237700.000			-26.811			-2.979
237801.000			-26.811			-2.979
237900.000			-26.811			-2.979
238000.000			-26.810			-2.979
238102.000			-26.810			-2.979
238201.000			-26.810			-2.979
238302.000			-26.809			-2.979
238400.000			-26.809			-2.979
238500.000			-26.809			-2.979
238601.000			-26.808			-2.979
238700.000			-26.809			-2.979
238800.000			-26.809			-2.979
238901.000			-26.809			-2.979
239000.000			-26.808			-2.979
239101.000			-26.807			-2.979
239202.000			-26.808			-2.979
239301.000			-26.807			-2.979
239400.000			-26.807			-2.979
239501.000			-26.806			-2.978
239600.000			-26.806			-2.978
239700.000			-26.806			-2.978
239801.000			-26.806			-2.978
239900.000			-26.805			-2.978
240000.000			-26.805			-2.978
240102.000			-26.805			-2.978
240201.000			-26.805			-2.978
240300.000			-26.805			-2.978
240401.000			-26.803			-2.978
240500.000			-26.804			-2.978
240600.000			-26.803			-2.978
240701.000			-26.802			-2.978
240800.000			-26.802			-2.978
240900.000			-26.803			-2.978
241002.000			-26.802			-2.978
241101.000			-26.801			-2.978
241200.000			-26.802			-2.978
241300.000			-26.802			-2.978
241400.000			-26.801			-2.978
241501.000			-26.802			-2.978
241600.000			-26.800			-2.978
241700.000			-26.800			-2.978
241801.000			-26.800			-2.978
241901.000			-26.800			-2.978
242001.000			-26.800			-2.978
242101.000			-26.799			-2.978
242200.000			-26.798			-2.978
242300.000			-26.798			-2.978
242401.000			-26.799			-2.978
242500.000			-26.799			-2.978
242600.000			-26.798			-2.978
242701.000			-26.798			-2.978
242801.000			-26.797			-2.977
242901.000			-26.798			-2.978
243002.000			-26.797			-2.977
243100.000			-26.797			-2.977
243200.000			-26.796			-2.977
243301.000			-26.795			-2.977
243400.000			-26.795			-2.977
243500.000			-26.795			-2.977
243601.000			-26.796			-2.977
243700.000			-26.795			-2.977
243800.000			-26.795			-2.977
243902.000			-26.795			-2.977
244001.000			-26.794			-2.977
244100.000			-26.794			-2.977
244201.000			-26.794			-2.977
244300.000			-26.794			-2.977
244400.000			-26.793			-2.977
244500.000			-26.792			-2.977
244600.000			-26.791			-2.977
244701.000			-26.791			-2.977
244801.000			-26.790			-2.977
244901.000			-26.791			-2.977
245002.000			-26.792			-2.977
245100.000			-26.792			-2.977
245200.000			-26.790			-2.977
245301.000			-26.790			-2.977
245400.000			-26.791			-2.977
245500.000			-26.790			-2.977
245601.000			-26.790			-2.977
245700.000			-26.790			-2.977
245801.000			-26.790			-2.977
245902.000			-26.790			-2.977
246001.000			-26.788			-2.976
246100.000			-26.788			-2.976
246201.000			-26.789			-2.977
246300.000			-26.788			-2.976
246400.000			-26.787			-2.976
246501.000			-26.787			-2.976
246600.000			-26.787			-2.976
246700.000			-26.788			-2.976
246802.000			-26.786			-2.976
246901.000			-26.786			-2.976
247001.000			-26.786			-2.976
247101.000			-26.785			-2.976
247200.000			-26.785			-2.976
247300.000			-26.785			-2.976
247401.000			-26.785			-2.976
247500.000			-26.783			-2.976
247600.000			-26.784			-2.976
247700.000			-26.784			-2.976
247801.000			-26.783			-2.976
247902.000			-26.783			-2.976
248001.000			-26.783			-2.976
248100.000			-26.781			-2.976
248201.000			-26.781			-2.976
248300.000			-26.781			-2.976
248400.000			-26.782			-2.976
248501.000			-26.781			-2.976
248600.000			-26.779			-2.975
248700.000			-26.780			-2.976
248802.000			-26.780			-2.976
248901.000			-26.781			-2.976
249001.000			-26.780			-2.976
249101.000			-26.779			-2.975
249200.000			-26.780			-2.976
249300.000			-26.780			-2.976
249401.000			-26.779			-2.975
249500.000			-26.778			-2.975
249600.000			-26.778			-2.975
249701.000			-26.778			-2.975
249801.000			-26.778			-2.975
249901.000			-26.777			-2.975
250002.000			-26.777			-2.975
250100.000			-26.777			-2.975
250200.000			-26.777			-2.975
250301.000			-26.777			-2.975
250400.000			-26.777			-2.975
250500.000			-26.776			-2.975
250601.000			-26.776			-2.975
250700.000			-26.776			-2.975
250802.000			-26.776			-2.975
250901.000			-26.776			-2.975
251001.000			-26.775			-2.975
251101.000			-26.775			-2.975
251200.000			-26.776			-2.975
251300.000			-26.774			-2.975
251401.000			-26.773			-2.975
251500.000			-26.774			-2.975
251600.000			-26.774			-2.975
251701.000			-26.774			-2.975
251801.000			-26.773			-2.975
251901.000			-26.773			-2.975
252002.000			-26.772			-2.975
252100.000			-26.772			-2.975
252200.000			-26.772			-2.975
252301.000			-26.772			-2.975
252400.000			-26.772			-2.975
252500.000			-26.772			-2.975
252601.000			-26.771			-2.975
252700.000			-26.771			-2.975
252801.000			-26.771			-2.975
252902.000			-26.771			-2.975
253000.000			-26.770			-2.974
253100.000			-26.770			-2.974
253201.000			-26.769			-2.974
253300.000			-26.768			-2.974
253400.000			-26.769			-2.974
253501.000			-26.769			-2.974
253600.000			-26.768			-2.974
253701.000			-26.768			-2.974
253802.000			-26.768			-2.974
253901.000			-26.768			-2.974
254000.000			-26.767			-2.974
254100.000			-26.768			-2.974
254200.000			-26.767			-2.974
254301.000			-26.767			-2.974
254400.000			-26.767			-2.974
254500.000			-26.766			-2.974
254601.000			-26.767			-2.974
254701.000			-26.766			-2.974
254801.000			-26.767			-2.974
254902.000			-26.765			-2.974
255000.000			-26.764			-2.974
255100.000			-26.763			-2.974
255201.000			-26.764			-2.974
255300.000			-26.765			-2.974
255400.000			-26.764			-2.974
255501.000			-26.763			-2.974
255600.000			-26.764			-2.974
255701.000			-26.763			-2.974
255802.000			-26.763			-2.974
255901.000			-26.764			-2.974
256000.000			-26.763			-2.974
256101.000			-26.762			-2.974
256200.000			-26.762			-2.974
256300.000			-26.761			-2.973
256401.000			-26.761			-2.973
256500.000			-26.761			-2.973
256600.000			-26.761			-2.973
256702.000			-26.761			-2.973
256801.000			-26.761			-2.973
256900.000			-26.761			-2.973
257001.000			-26.760			-2.973
257100.000			-26.759			-2.973
257200.000			-26.759			-2.973
257300.000			-26.759			-2.973
257400.000			-26.759			-2.973
257501.000			-26.758			-2.973
257600.000			-26.758			-2.973
257701.000			-26.757			-2.973
257802.000			-26.756			-2.973
257900.000			-26.757			-2.973
258000.000			-26.758			-2.973
258101.000			-26.758			-2.973
258200.000			-26.756			-2.973
258300.000			-26.756			-2.973
258401.000			-26.756			-2.973
258500.000			-26.755			-2.973
258600.000			-26.755			-2.973
258702.000			-26.756			-2.973
258801.000			-26.755			-2.973
258900.000			-26.755			-2.973
259001.000			-26.755			-2.973
259100.000			-26.754			-2.973
259200.000			-26.755			-2.973
259301.000			-26.754			-2.973
259400.000			-26.754			-2.973
259500.000			-26.754			-2.973
259601.000			-26.754			-2.973
259701.000			-26.753			-2.973
259801.000			-26.753			-2.973
259901.000			-26.753			-2.973
260000.000			-26.753			-2.973
260100.000			-26.752			-2.972
260201.000			-26.752			-2.972
260300.000			-26.751			-2.972
260400.000			-26.751			-2.972
260500.000			-26.751			-2.972
260600.000			-26.751			-2.972
260702.000			-26.750			-2.972
260801.000			-26.750			-2.972
260900.000			-26.750			-2.972
261001.000			-26.749			-2.972
261100.000			-26.750			-2.972
261200.000			-26.750			-2.972
261301.000			-26.748			-2.972
261400.000			-26.749			-2.972
261500.000			-26.749			-2.972
261602.000			-26.747			-2.972
261701.000			-26.747			-2.972
261801.000			-26.747			-2.972
261901.000			-26.747			-2.972
262000.000			-26.746			-2.972
262100.000			-26.747			-2.972
262201.000			-26.747			-2.972
262300.000			-26.747			-2.972
262400.000			-26.745			-2.972
262501.000			-26.745			-2.972
262601.000			-26.745			-2.972
262701.000			-26.744			-2.972
262801.000			-26.745			-2.972
262900.000			-26.745			-2.972
263000.000			-26.744			-2.972
263101.000			-26.744			-2.972
263200.000			-26.744			-2.972
263300.000			-26.744			-2.972
263401.000			-26.743			-2.971
263501.000			-26.743			-2.971
263602.000			-26.744			-2.972
263701.000			-26.744			-2.972
263800.000			-26.743			-2.971
263901.000			-26.743			-2.971
264000.000			-26.743			-2.971
264100.000			-26.743			-2.971
264201.000			-26.743			-2.971
264300.000			-26.742			-2.971
264400.000			-26.741			-2.971
264502.000			-26.742			-2.971
264601.000			-26.741			-2.971
264700.000			-26.740			-2.971
264801.000			-26.740			-2.971
264900.000			-26.740			-2.971
265000.000			-26.740			-2.971
265101.000			-26.739			-2.971
265200.000			-26.739			-2.971
265300.000			-26.739			-2.971
265402.000			-26.738			-2.971
265501.000			-26.738			-2.971
265601.000			-26.739			-2.971
265701.000			-26.738			-2.971
265800.000			-26.737			-2.971
265900.000			-26.737			-2.971
266001.000			-26.737			-2.971
266100.000			-26.736			-2.971
266200.000			-26.736			-2.971
266301.000			-26.736			-2.971
266401.000			-26.735			-2.971
266501.000			-26.736			-2.971
266601.000			-26.735			-2.971
266700.000			-26.735			-2.971
266800.000			-26.736			-2.971
266900.000			-26.735			-2.971
267000.000			-26.735			-2.971
267101.000			-26.734			-2.970
267200.000			-26.734			-2.970
267300.000			-26.734			-2.970
267402.000			-26.733			-2.970
267501.000			-26.732			-2.970
267600.000			-26.732			-2.970
267701.000			-26.732			-2.970
267800.000			-26.732			-2.970
267900.000			-26.732			-2.970
268001.000			-26.731			-2.970
268100.000			-26.731			-2.970
268200.000			-26.731			-2.970
268302.000			-26.731			-2.970
268401.000			-26.732			-2.970
268501.000			-26.731			-2.970
268601.000			-26.731			-2.970
268700.000			-26.731			-2.970
268800.000			-26.730			-2.970
268901.000			-26.730			-2.970
269000.000			-26.729			-2.970
269100.000			-26.728			-2.970
269201.000			-26.729			-2.970
269301.000			-26.728			-2.970
269401.000			-26.727			-2.970
269501.000			-26.728			-2.970
269600.000			-26.729			-2.970
269700.000			-26.728			-2.970
269801.000			-26.727			-2.970
269900.000			-26.727			-2.970
270000.000			-26.727			-2.970
270100.000			-26.727			-2.970
270200.000			-26.726			-2.970
270302.000			-26.727			-2.970
270401.000			-26.726			-2.970
270500.000			-26.726			-2.970
270601.000			-26.726			-2.970
270700.000			-26.725			-2.969
270800.000			-26.725			-2.969
270901.000			-26.725			-2.969
271000.000			-26.725			-2.969
271100.000			-26.724			-2.969
271202.000			-26.723			-2.969
271301.000			-26.723			-2.969
271400.000			-26.723			-2.969
271501.000			-26.724			-2.969
271600.000			-26.723			-2.969
271700.000			-26.722			-2.969
271801.000			-26.722			-2.969
271900.000			-26.722			-2.969
272000.000			-26.722			-2.969
272102.000			-26.721			-2.969
272201.000			-26.720			-2.969
272301.000			-26.720			-2.969
272401.000			-26.721			-2.969
272500.000			-26.720			-2.969
272600.000			-26.720			-2.969
272701.000			-26.720			-2.969
272800.000			-26.719			-2.969
272900.000			-26.718			-2.969
273001.000			-26.719			-2.969
273101.000			-26.719			-2.969
273202.000			-26.718			-2.969
273300.000			-26.718			-2.969
273400.000			-26.718			-2.969
273501.000			-26.718			-2.969
273600.000			-26.718			-2.969
273700.000			-26.718			-2.969
273801.000			-26.717			-2.969
273900.000			-26.717			-2.969
274001.000			-26.716			-2.968
274102.000			-26.716			-2.968
274201.000			-26.716			-2.968
274300.000			-26.716			-2.968
274401.000			-26.716			-2.968
274500.000			-26.715			-2.968
274600.000			-26.715			-2.968
274701.000			-26.715			-2.968
274800.000			-26.714			-2.968
274900.000			-26.714			-2.968
275002.000			-26.714			-2.968
275101.000			-26.714			-2.968
275200.000			-26.714			-2.968
275301.000			-26.713			-2.968
275400.000			-26.713			-2.968
275500.000			-26.712			-2.968
275601.000			-26.712			-2.968
275700.000			-26.712			-2.968
275800.000			-26.712			-2.968
275902.000			-26.712			-2.968
276001.000			-26.710			-2.968
276101.000			-26.710			-2.968
276201.000			-26.710			-2.968
276300.000			-26.710			-2.968
276400.000			-26.710			-2.968
276500.000			-26.709			-2.968
276600.000			-26.710			-2.968
276701.000			-26.709			-2.968
276800.000			-26.708			-2.968
276901.000			-26.709			-2.968
277002.000			-26.709			-2.968
277100.000			-26.708			-2.968
277200.000			-26.708			-2.968
277301.000			-26.708			-2.968
277400.000			-26.708			-2.968
277500.000			-26.707			-2.967
277601.000			-26.707			-2.967
277700.000			-26.707			-2.967
277800.000			-26.706			-2.967
277902.000			-26.706			-2.967
278001.000			-26.706			-2.967
278100.000			-26.706			-2.967
278201.000			-26.705			-2.967
278300.000			-26.705			-2.967
278400.000			-26.705			-2.967
278501.000			-26.704			-2.967
278600.000			-26.704			-2.967
278700.000			-26.704			-2.967
278802.000			-26.705			-2.967
278901.000			-26.704			-2.967
279001.000			-26.704			-2.967
279101.000			-26.703			-2.967
279200.000			-26.704			-2.967
279300.000			-26.704			-2.967
279401.000			-26.703			-2.967
279500.000			-26.702			-2.967
279600.000			-26.702			-2.967
279700.000			-26.702			-2.967
279801.000			-26.702			-2.967
279902.000			-26.701			-2.967
280000.000			-26.701			-2.967
280100.000			-26.700			-2.967
280201.000			-26.700			-2.967
280300.000			-26.700			-2.967
280400.000			-26.700			-2.967
280501.000			-26.700			-2.967
280600.000			-26.700			-2.967
280701.000			-26.700			-2.967
280802.000			-26.700			-2.967
280901.000			-26.700			-2.967
281000.000			-26.699			-2.967
281101.000			-26.699			-2.967
281200.000			-26.700			-2.967
281300.000			-26.699			-2.967
281401.000			-26.698			-2.966
281500.000			-26.698			-2.966
281600.000			-26.699			-2.967
281702.000			-26.698			-2.966
281801.000			-26.697			-2.966
281900.000			-26.697			-2.966
282001.000			-26.697			-2.966
282100.000			-26.697			-2.966
282200.000			-26.696			-2.966
282301.000			-26.696			-2.966
282400.000			-26.695			-2.966
282500.000			-26.695			-2.966
282601.000			-26.695			-2.966
282701.000			-26.695			-2.966
282802.000			-26.694			-2.966
282900.000			-26.694			-2.966
283000.000			-26.695			-2.966
283101.000			-26.694			-2.966
283200.000			-26.695			-2.966
283300.000			-26.695			-2.966
283401.000			-26.695			-2.966
283500.000			-26.694			-2.966
283601.000			-26.693			-2.966
283702.000			-26.693			-2.966
283801.000			-26.693			-2.966
283900.000			-26.692			-2.966
284001.000			-26.691			-2.966
284100.000			-26.691			-2.966
284200.000			-26.691			-2.966
284301.000			-26.691			-2.966
284400.000			-26.691			-2.966
284500.000			-26.691			-2.966
284602.000			-26.691			-2.966
284701.000			-26.691			-2.966
284801.000			-26.691			-2.966
284901.000			-26.690			-2.966
285000.000			-26.690			-2.966
285100.000			-26.690			-2.966
285201.000			-26.690			-2.966
285300.000			-26.689			-2.965
285400.000			-26.690			-2.966
285501.000			-26.689			-2.965
285601.000			-26.689			-2.965
285701.000			-26.689			-2.965
285802.000			-26.689			-2.965
285900.000			-26.689			-2.965
286000.000			-26.689			-2.965
286100.000			-26.688			-2.965
286200.000			-26.687			-2.965
286301.000			-26.687			-2.965
286400.000			-26.686			-2.965
286500.000			-26.686			-2.965
286602.000			-26.686			-2.965
286701.000			-26.687			-2.965
286801.000			-26.687			-2.965
286901.000			-26.685			-2.965
287000.000			-26.686			-2.965
287100.000			-26.686			-2.965
287201.000			-26.686			-2.965
287300.000			-26.685			-2.965
287400.000			-26.685			-2.965
287501.000			-26.685			-2.965
287601.000			-26.685			-2.965
287701.000			-26.685			-2.965
287802.000			-26.685			-2.965
287900.000			-26.683			-2.965
288000.000			-26.683			-2.965
288101.000			-26.683			-2.965
288200.000			-26.683			-2.965
288300.000			-26.683			-2.965
288401.000			-26.683			-2.965
288500.000			-26.683			-2.965
288601.000			-26.683			-2.965
288702.000			-26.683			-2.965
288801.000			-26.682			-2.965
288900.000			-26.681			-2.965
289001.000			-26.681			-2.965
289100.000			-26.680			-2.964
289200.000			-26.681			-2.965
289300.000			-26.680			-2.964
289400.000			-26.680			-2.964
289501.000			-26.680			-2.964
289601.000			-26.680			-2.964
289701.000			-26.679			-2.964
289802.000			-26.678			-2.964
289900.000			-26.679			-2.964
290000.000			-26.679			-2.964
290101.000			-26.678			-2.964
290200.000			-26.678			-2.964
290300.000			-26.679			-2.964
290401.000			-26.678			-2.964
290500.000			-26.678			-2.964
290600.000			-26.678			-2.964
290702.000			-26.678			-2.964
290801.000			-26.678			-2.964
290900.000			-26.677			-2.964
291001.000			-26.677			-2.964
291100.000			-26.676			-2.964
291200.000			-26.676			-2.964
291301.000			-26.676			-2.964
291400.000			-26.676			-2.964
291500.000			-26.676			-2.964
291602.000			-26.676			-2.964
291701.000			-26.675			-2.964
291801.000			-26.675			-2.964
291901.000			-26.674			-2.964
292000.000			-26.676			-2.964
292100.000			-26.675			-2.964
292201.000			-26.673			-2.964
292300.000			-26.673			-2.964
292400.000			-26.673			-2.964
292500.000			-26.674			-2.964
292601.000			-26.673			-2.964
292702.000			-26.672			-2.964
292801.000			-26.672			-2.964
292900.000			-26.672			-2.964
293001.000			-26.673			-2.964
293100.000			-26.673			-2.964
293200.000			-26.672			-2.964
293301.000			-26.671			-2.963
293400.000			-26.671			-2.963
293500.000			-26.672			-2.964
293602.000			-26.672			-2.964
293701.000			-26.672			-2.964
293800.000			-26.671			-2.963
293901.000			-26.671			-2.963
294000.000			-26.671			-2.963
294100.000			-26.670			-2.963
294201.000			-26.671			-2.963
294300.000			-26.670			-2.963
294400.000			-26.670			-2.963
294502.000			-26.669			-2.963
294601.000			-26.669			-2.963
294701.000			-26.668			-2.963
294801.000			-26.669			-2.963
294900.000			-26.669			-2.963
295000.000			-26.668			-2.963
295101.000			-26.667			-2.963
295200.000			-26.667			-2.963
295300.000			-26.667			-2.963
295401.000			-26.668			-2.963
295501.000			-26.668			-2.963
295602.000			-26.668			-2.963
295701.000			-26.668			-2.963
295800.000			-26.667			-2.963
295901.000			-26.667			-2.963
296000.000			-26.666			-2.963
296100.000			-26.666			-2.963
296201.000			-26.665			-2.963
296300.000			-26.666			-2.963
296400.000			-26.665			-2.963
296502.000			-26.665			-2.963
296601.000			-26.665			-2.963
296701.000			-26.665			-2.963
296801.000			-26.665			-2.963
296900.000			-26.664			-2.963
297000.000			-26.663			-2.963
297101.000			-26.664			-2.963
297200.000			-26.664			-2.963
297300.000			-26.663			-2.963
297401.000			-26.663			-2.963
297501.000			-26.664			-2.963
297601.000			-26.664			-2.963
297702.000			-26.663			-2.963
297800.000			-26.663			-2.963
297900.000			-26.663			-2.963
298001.000			-26.662			-2.962
298100.000			-26.661			-2.962
298200.000			-26.661			-2.962
298301.000			-26.661			-2.962
298400.000			-26.661			-2.962
298501.000			-26.660			-2.962
298602.000			-26.660			-2.962
298701.000			-26.660			-2.962
298800.000			-26.660			-2.962
298900.000			-26.660			-2.962
299000.000			-26.660			-2.962
299101.000			-26.660			-2.962
299200.000			-26.659			-2.962
299300.000			-26.659			-2.962
299401.000			-26.659			-2.962
299501.000			-26.659			-2.962
299601.000			-26.658			-2.962
299702.000			-26.659			-2.962
299800.000			-26.658			-2.962
299900.000			-26.657			-2.962
