# Acquired on 10/01/2024 14:12:09 
# SPIDER: Creep_5mm_07714532C-2
# CREEP MEASUREMENT

# time [ms]		force [N]		stiffness [N/mm]
0.000			-8.930			-1.786
101.000			-10.426			-2.085
201.000			-10.555			-2.111
300.000			-10.519			-2.104
401.000			-10.479			-2.096
500.000			-10.448			-2.090
600.000			-10.421			-2.084
701.000			-10.398			-2.080
801.000			-10.377			-2.075
901.000			-10.343			-2.069
1001.000			-10.329			-2.066
1100.000			-10.314			-2.063
1200.000			-10.301			-2.060
1301.000			-10.290			-2.058
1400.000			-10.278			-2.056
1500.000			-10.268			-2.054
1602.000			-10.248			-2.050
1701.000			-10.239			-2.048
1800.000			-10.230			-2.046
1901.000			-10.222			-2.044
2000.000			-10.213			-2.043
2100.000			-10.205			-2.041
2201.000			-10.198			-2.040
2301.000			-10.186			-2.037
2401.000			-10.179			-2.036
2501.000			-10.172			-2.034
2600.000			-10.167			-2.033
2700.000			-10.160			-2.032
2800.000			-10.154			-2.031
2900.000			-10.149			-2.030
3001.000			-10.138			-2.028
3101.000			-10.134			-2.027
3200.000			-10.129			-2.026
3301.000			-10.124			-2.025
3400.000			-10.119			-2.024
3500.000			-10.113			-2.023
3601.000			-10.109			-2.022
3700.000			-10.105			-2.021
3801.000			-10.096			-2.019
3902.000			-10.093			-2.019
4000.000			-10.087			-2.017
4100.000			-10.084			-2.017
4201.000			-10.081			-2.016
4300.000			-10.077			-2.015
4400.000			-10.073			-2.015
4502.000			-10.066			-2.013
4601.000			-10.062			-2.012
4700.000			-10.058			-2.012
4801.000			-10.054			-2.011
4900.000			-10.050			-2.010
5000.000			-10.048			-2.010
5101.000			-10.045			-2.009
5200.000			-10.039			-2.008
5301.000			-10.035			-2.007
5402.000			-10.032			-2.006
5500.000			-10.029			-2.006
5600.000			-10.026			-2.005
5701.000			-10.023			-2.005
5800.000			-10.021			-2.004
5900.000			-10.015			-2.003
6002.000			-10.013			-2.003
6101.000			-10.010			-2.002
6201.000			-10.007			-2.001
6300.000			-10.004			-2.001
6400.000			-10.002			-2.000
6501.000			-10.000			-2.000
6600.000			-9.997			-1.999
6701.000			-9.991			-1.998
6802.000			-9.990			-1.998
6900.000			-9.987			-1.997
7000.000			-9.984			-1.997
7101.000			-9.981			-1.996
7200.000			-9.979			-1.996
7300.000			-9.977			-1.995
7401.000			-9.973			-1.995
7501.000			-9.971			-1.994
7601.000			-9.968			-1.994
7701.000			-9.965			-1.993
7800.000			-9.963			-1.993
7900.000			-9.962			-1.992
8001.000			-9.959			-1.992
8100.000			-9.955			-1.991
8200.000			-9.955			-1.991
8302.000			-9.953			-1.991
8401.000			-9.950			-1.990
8500.000			-9.947			-1.989
8601.000			-9.946			-1.989
8700.000			-9.944			-1.989
8800.000			-9.939			-1.988
8901.000			-9.938			-1.988
9000.000			-9.937			-1.987
9102.000			-9.933			-1.987
9201.000			-9.932			-1.986
9300.000			-9.930			-1.986
9401.000			-9.929			-1.986
9500.000			-9.926			-1.985
9600.000			-9.923			-1.985
9701.000			-9.921			-1.984
9800.000			-9.919			-1.984
9901.000			-9.917			-1.983
10002.000			-9.916			-1.983
10100.000			-9.915			-1.983
10200.000			-9.913			-1.983
10301.000			-9.909			-1.982
10400.000			-9.908			-1.982
10500.000			-9.907			-1.981
10601.000			-9.904			-1.981
10701.000			-9.902			-1.980
10801.000			-9.900			-1.980
10901.000			-9.899			-1.980
11000.000			-9.897			-1.979
11100.000			-9.896			-1.979
11201.000			-9.894			-1.979
11300.000			-9.892			-1.978
11400.000			-9.891			-1.978
11502.000			-9.889			-1.978
11601.000			-9.888			-1.978
11700.000			-9.885			-1.977
11801.000			-9.882			-1.976
11900.000			-9.881			-1.976
12000.000			-9.881			-1.976
12101.000			-9.880			-1.976
12200.000			-9.879			-1.976
12302.000			-9.877			-1.975
12401.000			-9.876			-1.975
12500.000			-9.872			-1.974
12601.000			-9.871			-1.974
12700.000			-9.869			-1.974
12800.000			-9.868			-1.974
12901.000			-9.866			-1.973
13000.000			-9.865			-1.973
13101.000			-9.864			-1.973
13202.000			-9.863			-1.973
13300.000			-9.861			-1.972
13400.000			-9.859			-1.972
13501.000			-9.858			-1.972
13600.000			-9.856			-1.971
13700.000			-9.855			-1.971
13801.000			-9.853			-1.971
13901.000			-9.850			-1.970
14001.000			-9.849			-1.970
14102.000			-9.847			-1.969
14200.000			-9.846			-1.969
14300.000			-9.845			-1.969
14401.000			-9.843			-1.969
14500.000			-9.842			-1.968
14600.000			-9.840			-1.968
14701.000			-9.838			-1.968
14801.000			-9.836			-1.967
14901.000			-9.836			-1.967
15001.000			-9.836			-1.967
15100.000			-9.834			-1.967
15200.000			-9.833			-1.967
15301.000			-9.829			-1.966
15400.000			-9.829			-1.966
15500.000			-9.827			-1.965
15602.000			-9.827			-1.965
15701.000			-9.826			-1.965
15801.000			-9.824			-1.965
15900.000			-9.823			-1.965
16000.000			-9.822			-1.964
16101.000			-9.821			-1.964
16200.000			-9.819			-1.964
16300.000			-9.818			-1.964
16402.000			-9.817			-1.963
16501.000			-9.817			-1.963
16600.000			-9.815			-1.963
16701.000			-9.814			-1.963
16800.000			-9.812			-1.962
16900.000			-9.811			-1.962
17001.000			-9.808			-1.962
17100.000			-9.807			-1.961
17201.000			-9.807			-1.961
17302.000			-9.806			-1.961
17400.000			-9.804			-1.961
17500.000			-9.803			-1.961
17601.000			-9.802			-1.960
17700.000			-9.801			-1.960
17800.000			-9.799			-1.960
17901.000			-9.799			-1.960
18001.000			-9.798			-1.960
18101.000			-9.797			-1.959
18201.000			-9.794			-1.959
18300.000			-9.793			-1.959
18400.000			-9.791			-1.958
18501.000			-9.791			-1.958
18600.000			-9.791			-1.958
18700.000			-9.789			-1.958
18802.000			-9.789			-1.958
18901.000			-9.788			-1.958
19001.000			-9.785			-1.957
19100.000			-9.785			-1.957
19200.000			-9.784			-1.957
19301.000			-9.784			-1.957
19400.000			-9.783			-1.957
19500.000			-9.781			-1.956
19601.000			-9.781			-1.956
19701.000			-9.778			-1.956
19801.000			-9.778			-1.956
19901.000			-9.777			-1.955
20000.000			-9.777			-1.955
20100.000			-9.776			-1.955
20201.000			-9.774			-1.955
20300.000			-9.774			-1.955
20400.000			-9.772			-1.954
20502.000			-9.772			-1.954
20601.000			-9.771			-1.954
20700.000			-9.770			-1.954
20801.000			-9.769			-1.954
20900.000			-9.768			-1.954
21000.000			-9.766			-1.953
21101.000			-9.765			-1.953
21200.000			-9.764			-1.953
21301.000			-9.764			-1.953
21402.000			-9.763			-1.953
21500.000			-9.763			-1.953
21600.000			-9.762			-1.952
21701.000			-9.760			-1.952
21800.000			-9.759			-1.952
21900.000			-9.758			-1.952
22000.000			-9.757			-1.951
22101.000			-9.756			-1.951
22202.000			-9.756			-1.951
22300.000			-9.754			-1.951
22400.000			-9.754			-1.951
22501.000			-9.753			-1.951
22600.000			-9.751			-1.950
22700.000			-9.750			-1.950
22801.000			-9.751			-1.950
22901.000			-9.751			-1.950
23001.000			-9.749			-1.950
23101.000			-9.748			-1.950
23200.000			-9.748			-1.950
23300.000			-9.745			-1.949
23401.000			-9.744			-1.949
23500.000			-9.744			-1.949
23600.000			-9.744			-1.949
23702.000			-9.743			-1.949
23801.000			-9.741			-1.948
23900.000			-9.742			-1.948
24001.000			-9.740			-1.948
24100.000			-9.739			-1.948
24200.000			-9.739			-1.948
24301.000			-9.738			-1.948
24401.000			-9.738			-1.948
24501.000			-9.737			-1.947
24602.000			-9.736			-1.947
24700.000			-9.734			-1.947
24800.000			-9.733			-1.947
24901.000			-9.731			-1.946
25000.000			-9.731			-1.946
25100.000			-9.731			-1.946
25200.000			-9.730			-1.946
25301.000			-9.729			-1.946
25402.000			-9.728			-1.946
25500.000			-9.728			-1.946
25600.000			-9.726			-1.945
25701.000			-9.725			-1.945
25800.000			-9.726			-1.945
25900.000			-9.725			-1.945
26001.000			-9.724			-1.945
26101.000			-9.724			-1.945
26201.000			-9.721			-1.944
26301.000			-9.720			-1.944
26400.000			-9.720			-1.944
26500.000			-9.718			-1.944
26601.000			-9.719			-1.944
26700.000			-9.717			-1.943
26800.000			-9.717			-1.943
26902.000			-9.717			-1.943
27001.000			-9.715			-1.943
27100.000			-9.714			-1.943
27201.000			-9.713			-1.943
27300.000			-9.713			-1.943
27400.000			-9.713			-1.943
27501.000			-9.712			-1.942
27600.000			-9.712			-1.942
27701.000			-9.711			-1.942
27802.000			-9.710			-1.942
27900.000			-9.708			-1.942
28000.000			-9.707			-1.941
28101.000			-9.707			-1.941
28200.000			-9.707			-1.941
28300.000			-9.707			-1.941
28400.000			-9.705			-1.941
28501.000			-9.704			-1.941
28602.000			-9.704			-1.941
28700.000			-9.703			-1.941
28800.000			-9.703			-1.941
28901.000			-9.702			-1.940
29000.000			-9.702			-1.940
29100.000			-9.700			-1.940
29201.000			-9.700			-1.940
29301.000			-9.699			-1.940
29401.000			-9.698			-1.940
29501.000			-9.697			-1.939
29600.000			-9.697			-1.939
29700.000			-9.697			-1.939
29801.000			-9.694			-1.939
29900.000			-9.695			-1.939
30000.000			-9.694			-1.939
30102.000			-9.693			-1.939
30201.000			-9.693			-1.939
30300.000			-9.692			-1.938
30401.000			-9.692			-1.938
30500.000			-9.691			-1.938
30600.000			-9.689			-1.938
30701.000			-9.689			-1.938
30800.000			-9.689			-1.938
30901.000			-9.689			-1.938
31002.000			-9.688			-1.938
31101.000			-9.687			-1.937
31200.000			-9.686			-1.937
31301.000			-9.686			-1.937
31400.000			-9.685			-1.937
31500.000			-9.685			-1.937
31600.000			-9.684			-1.937
31700.000			-9.683			-1.937
31802.000			-9.684			-1.937
31901.000			-9.683			-1.937
32000.000			-9.681			-1.936
32101.000			-9.681			-1.936
32200.000			-9.681			-1.936
32300.000			-9.680			-1.936
32401.000			-9.680			-1.936
32501.000			-9.679			-1.936
32601.000			-9.679			-1.936
32702.000			-9.678			-1.936
32800.000			-9.677			-1.935
32900.000			-9.676			-1.935
33001.000			-9.677			-1.935
33100.000			-9.676			-1.935
33200.000			-9.676			-1.935
33301.000			-9.676			-1.935
33401.000			-9.675			-1.935
33501.000			-9.673			-1.935
33601.000			-9.672			-1.934
33700.000			-9.673			-1.935
33800.000			-9.673			-1.935
33901.000			-9.673			-1.935
34000.000			-9.672			-1.934
34100.000			-9.671			-1.934
34202.000			-9.670			-1.934
34301.000			-9.670			-1.934
34400.000			-9.670			-1.934
34501.000			-9.669			-1.934
34600.000			-9.668			-1.934
34700.000			-9.667			-1.933
34800.000			-9.667			-1.933
34900.000			-9.668			-1.934
35002.000			-9.667			-1.933
35101.000			-9.666			-1.933
35200.000			-9.666			-1.933
35301.000			-9.665			-1.933
35400.000			-9.664			-1.933
35500.000			-9.664			-1.933
35601.000			-9.664			-1.933
35700.000			-9.663			-1.933
35801.000			-9.663			-1.933
35902.000			-9.662			-1.932
36000.000			-9.661			-1.932
36100.000			-9.660			-1.932
36201.000			-9.660			-1.932
36300.000			-9.660			-1.932
36400.000			-9.658			-1.932
36501.000			-9.657			-1.931
36601.000			-9.658			-1.932
36701.000			-9.657			-1.931
36801.000			-9.656			-1.931
36900.000			-9.655			-1.931
37000.000			-9.655			-1.931
37101.000			-9.655			-1.931
37200.000			-9.655			-1.931
37300.000			-9.654			-1.931
37402.000			-9.653			-1.931
37501.000			-9.653			-1.931
37601.000			-9.653			-1.931
37701.000			-9.652			-1.930
37800.000			-9.651			-1.930
37900.000			-9.652			-1.930
38000.000			-9.651			-1.930
38100.000			-9.650			-1.930
38201.000			-9.650			-1.930
38301.000			-9.649			-1.930
38401.000			-9.649			-1.930
38501.000			-9.647			-1.929
38600.000			-9.647			-1.929
38700.000			-9.646			-1.929
38801.000			-9.645			-1.929
38900.000			-9.645			-1.929
39000.000			-9.645			-1.929
39102.000			-9.645			-1.929
39201.000			-9.645			-1.929
39300.000			-9.643			-1.929
39401.000			-9.642			-1.928
39500.000			-9.642			-1.928
39600.000			-9.641			-1.928
39701.000			-9.641			-1.928
39800.000			-9.641			-1.928
39901.000			-9.640			-1.928
40002.000			-9.640			-1.928
40100.000			-9.639			-1.928
40200.000			-9.639			-1.928
40301.000			-9.638			-1.928
40400.000			-9.637			-1.927
40500.000			-9.637			-1.927
40601.000			-9.637			-1.927
40701.000			-9.635			-1.927
40801.000			-9.635			-1.927
40901.000			-9.636			-1.927
41000.000			-9.635			-1.927
41100.000			-9.634			-1.927
41200.000			-9.633			-1.927
41300.000			-9.633			-1.927
41401.000			-9.633			-1.927
41501.000			-9.632			-1.926
41601.000			-9.632			-1.926
41701.000			-9.631			-1.926
41800.000			-9.630			-1.926
41900.000			-9.631			-1.926
42001.000			-9.631			-1.926
42100.000			-9.630			-1.926
42200.000			-9.629			-1.926
42302.000			-9.629			-1.926
42401.000			-9.628			-1.926
42500.000			-9.628			-1.926
42601.000			-9.628			-1.926
42700.000			-9.626			-1.925
42800.000			-9.626			-1.925
42901.000			-9.625			-1.925
43000.000			-9.625			-1.925
43101.000			-9.624			-1.925
43202.000			-9.624			-1.925
43300.000			-9.624			-1.925
43400.000			-9.623			-1.925
43501.000			-9.622			-1.924
43600.000			-9.622			-1.924
43700.000			-9.622			-1.924
43801.000			-9.622			-1.924
43901.000			-9.620			-1.924
44001.000			-9.620			-1.924
44101.000			-9.620			-1.924
44200.000			-9.619			-1.924
44300.000			-9.618			-1.924
44400.000			-9.618			-1.924
44500.000			-9.617			-1.923
44601.000			-9.616			-1.923
44701.000			-9.615			-1.923
44801.000			-9.614			-1.923
44901.000			-9.614			-1.923
45000.000			-9.614			-1.923
45100.000			-9.613			-1.923
45201.000			-9.612			-1.922
45300.000			-9.613			-1.923
45400.000			-9.613			-1.923
45502.000			-9.612			-1.922
45601.000			-9.611			-1.922
45700.000			-9.611			-1.922
45801.000			-9.610			-1.922
45900.000			-9.610			-1.922
46000.000			-9.610			-1.922
46101.000			-9.609			-1.922
46200.000			-9.608			-1.922
46301.000			-9.607			-1.921
46402.000			-9.607			-1.921
46500.000			-9.607			-1.921
46600.000			-9.607			-1.921
46701.000			-9.606			-1.921
46800.000			-9.604			-1.921
46900.000			-9.605			-1.921
47001.000			-9.606			-1.921
47101.000			-9.605			-1.921
47201.000			-9.605			-1.921
47301.000			-9.603			-1.921
47400.000			-9.602			-1.920
47500.000			-9.602			-1.920
47600.000			-9.602			-1.920
47700.000			-9.602			-1.920
47801.000			-9.602			-1.920
47901.000			-9.602			-1.920
48001.000			-9.601			-1.920
48101.000			-9.600			-1.920
48200.000			-9.600			-1.920
48300.000			-9.601			-1.920
48401.000			-9.601			-1.920
48500.000			-9.600			-1.920
48600.000			-9.599			-1.920
48702.000			-9.599			-1.920
48801.000			-9.599			-1.920
48900.000			-9.598			-1.920
49001.000			-9.598			-1.920
49100.000			-9.596			-1.919
49200.000			-9.597			-1.919
49301.000			-9.597			-1.919
49400.000			-9.595			-1.919
49501.000			-9.596			-1.919
49602.000			-9.596			-1.919
49701.000			-9.594			-1.919
49800.000			-9.595			-1.919
49901.000			-9.595			-1.919
50000.000			-9.594			-1.919
50100.000			-9.593			-1.919
50201.000			-9.592			-1.918
50300.000			-9.592			-1.918
50401.000			-9.592			-1.918
50502.000			-9.591			-1.918
50600.000			-9.590			-1.918
50700.000			-9.589			-1.918
50800.000			-9.590			-1.918
50900.000			-9.587			-1.917
51001.000			-9.587			-1.917
51100.000			-9.587			-1.917
51201.000			-9.587			-1.917
51302.000			-9.586			-1.917
51400.000			-9.585			-1.917
51500.000			-9.585			-1.917
51601.000			-9.585			-1.917
51700.000			-9.584			-1.917
51800.000			-9.584			-1.917
51901.000			-9.583			-1.917
52001.000			-9.583			-1.917
52101.000			-9.584			-1.917
52201.000			-9.584			-1.917
52300.000			-9.582			-1.916
52400.000			-9.582			-1.916
52501.000			-9.583			-1.917
52600.000			-9.583			-1.917
52700.000			-9.581			-1.916
52802.000			-9.580			-1.916
52901.000			-9.580			-1.916
53000.000			-9.580			-1.916
53101.000			-9.580			-1.916
53200.000			-9.579			-1.916
53300.000			-9.578			-1.916
53401.000			-9.579			-1.916
53500.000			-9.579			-1.916
53601.000			-9.579			-1.916
53702.000			-9.578			-1.916
53801.000			-9.579			-1.916
53900.000			-9.578			-1.916
54000.000			-9.576			-1.915
54100.000			-9.577			-1.915
54201.000			-9.577			-1.915
54300.000			-9.576			-1.915
54400.000			-9.575			-1.915
54502.000			-9.575			-1.915
54601.000			-9.575			-1.915
54700.000			-9.574			-1.915
54801.000			-9.573			-1.915
54900.000			-9.573			-1.915
55000.000			-9.573			-1.915
55101.000			-9.573			-1.915
55200.000			-9.571			-1.914
55301.000			-9.571			-1.914
55402.000			-9.571			-1.914
55500.000			-9.571			-1.914
55600.000			-9.571			-1.914
55701.000			-9.570			-1.914
55800.000			-9.570			-1.914
55900.000			-9.569			-1.914
56001.000			-9.569			-1.914
56101.000			-9.569			-1.914
56201.000			-9.569			-1.914
56301.000			-9.569			-1.914
56400.000			-9.567			-1.913
56500.000			-9.567			-1.913
56601.000			-9.568			-1.914
56700.000			-9.566			-1.913
56800.000			-9.566			-1.913
56902.000			-9.566			-1.913
57001.000			-9.566			-1.913
57102.000			-9.566			-1.913
57200.000			-9.566			-1.913
57300.000			-9.565			-1.913
57401.000			-9.564			-1.913
57500.000			-9.564			-1.913
57600.000			-9.563			-1.913
57701.000			-9.563			-1.913
57801.000			-9.564			-1.913
57901.000			-9.562			-1.912
58001.000			-9.563			-1.913
58100.000			-9.562			-1.912
58200.000			-9.562			-1.912
58301.000			-9.560			-1.912
58400.000			-9.560			-1.912
58500.000			-9.562			-1.912
58602.000			-9.561			-1.912
58701.000			-9.559			-1.912
58800.000			-9.558			-1.912
58901.000			-9.559			-1.912
59000.000			-9.559			-1.912
59100.000			-9.558			-1.912
59201.000			-9.559			-1.912
59300.000			-9.558			-1.912
59401.000			-9.558			-1.912
59502.000			-9.558			-1.912
59600.000			-9.557			-1.911
59700.000			-9.555			-1.911
59801.000			-9.555			-1.911
59900.000			-9.554			-1.911
60000.000			-9.554			-1.911
60101.000			-9.555			-1.911
60201.000			-9.555			-1.911
60302.000			-9.554			-1.911
60401.000			-9.554			-1.911
60500.000			-9.553			-1.911
60601.000			-9.552			-1.910
60700.000			-9.552			-1.910
60800.000			-9.552			-1.910
60901.000			-9.551			-1.910
61001.000			-9.552			-1.910
61101.000			-9.551			-1.910
61201.000			-9.551			-1.910
61300.000			-9.551			-1.910
61400.000			-9.550			-1.910
61501.000			-9.550			-1.910
61600.000			-9.549			-1.910
61700.000			-9.549			-1.910
61802.000			-9.549			-1.910
61901.000			-9.548			-1.910
62000.000			-9.548			-1.910
62101.000			-9.548			-1.910
62200.000			-9.548			-1.910
62300.000			-9.548			-1.910
62401.000			-9.547			-1.909
62500.000			-9.546			-1.909
62601.000			-9.546			-1.909
62702.000			-9.545			-1.909
62801.000			-9.545			-1.909
62900.000			-9.544			-1.909
63001.000			-9.544			-1.909
63100.000			-9.544			-1.909
63200.000			-9.542			-1.908
63301.000			-9.542			-1.908
63401.000			-9.542			-1.908
63502.000			-9.542			-1.908
63601.000			-9.541			-1.908
63700.000			-9.541			-1.908
63801.000			-9.540			-1.908
63900.000			-9.538			-1.908
64000.000			-9.539			-1.908
64101.000			-9.539			-1.908
64201.000			-9.539			-1.908
64301.000			-9.537			-1.907
64401.000			-9.536			-1.907
64500.000			-9.537			-1.907
64600.000			-9.539			-1.908
64701.000			-9.538			-1.908
64800.000			-9.536			-1.907
64900.000			-9.536			-1.907
65002.000			-9.536			-1.907
65101.000			-9.535			-1.907
65201.000			-9.535			-1.907
65301.000			-9.534			-1.907
65400.000			-9.535			-1.907
65500.000			-9.534			-1.907
65601.000			-9.532			-1.906
65700.000			-9.533			-1.907
65800.000			-9.533			-1.907
65902.000			-9.532			-1.906
66001.000			-9.532			-1.906
66100.000			-9.531			-1.906
66201.000			-9.531			-1.906
66300.000			-9.531			-1.906
66400.000			-9.532			-1.906
66501.000			-9.531			-1.906
66600.000			-9.530			-1.906
66702.000			-9.529			-1.906
66801.000			-9.528			-1.906
66900.000			-9.528			-1.906
67001.000			-9.528			-1.906
67100.000			-9.527			-1.905
67200.000			-9.527			-1.905
67301.000			-9.528			-1.906
67400.000			-9.528			-1.906
67501.000			-9.527			-1.905
67602.000			-9.527			-1.905
67700.000			-9.527			-1.905
67800.000			-9.528			-1.906
67901.000			-9.526			-1.905
68000.000			-9.526			-1.905
68100.000			-9.525			-1.905
68201.000			-9.525			-1.905
68301.000			-9.525			-1.905
68401.000			-9.525			-1.905
68502.000			-9.523			-1.905
68600.000			-9.523			-1.905
68700.000			-9.523			-1.905
68801.000			-9.523			-1.905
68900.000			-9.523			-1.905
69000.000			-9.521			-1.904
69101.000			-9.522			-1.904
69201.000			-9.521			-1.904
69301.000			-9.522			-1.904
69401.000			-9.521			-1.904
69500.000			-9.520			-1.904
69600.000			-9.520			-1.904
69701.000			-9.519			-1.904
69800.000			-9.519			-1.904
69900.000			-9.519			-1.904
70002.000			-9.518			-1.904
70101.000			-9.518			-1.904
70201.000			-9.518			-1.904
70300.000			-9.518			-1.904
70400.000			-9.517			-1.903
70501.000			-9.517			-1.903
70600.000			-9.517			-1.903
70700.000			-9.516			-1.903
70802.000			-9.515			-1.903
70901.000			-9.516			-1.903
71000.000			-9.515			-1.903
71101.000			-9.515			-1.903
71200.000			-9.515			-1.903
71300.000			-9.515			-1.903
71401.000			-9.515			-1.903
71500.000			-9.514			-1.903
71601.000			-9.514			-1.903
71702.000			-9.513			-1.903
71800.000			-9.513			-1.903
71900.000			-9.513			-1.903
72001.000			-9.513			-1.903
72100.000			-9.512			-1.902
72200.000			-9.511			-1.902
72301.000			-9.512			-1.902
72401.000			-9.512			-1.902
72501.000			-9.512			-1.902
72601.000			-9.510			-1.902
72700.000			-9.509			-1.902
72800.000			-9.509			-1.902
72901.000			-9.510			-1.902
73000.000			-9.509			-1.902
73100.000			-9.509			-1.902
73202.000			-9.509			-1.902
73301.000			-9.509			-1.902
73402.000			-9.509			-1.902
73500.000			-9.509			-1.902
73600.000			-9.508			-1.902
73701.000			-9.508			-1.902
73800.000			-9.507			-1.901
73900.000			-9.507			-1.901
74001.000			-9.507			-1.901
74101.000			-9.508			-1.902
74201.000			-9.507			-1.901
74301.000			-9.506			-1.901
74400.000			-9.507			-1.901
74500.000			-9.506			-1.901
74601.000			-9.506			-1.901
74700.000			-9.505			-1.901
74800.000			-9.505			-1.901
74902.000			-9.506			-1.901
75001.000			-9.505			-1.901
75100.000			-9.505			-1.901
75201.000			-9.505			-1.901
75300.000			-9.505			-1.901
75400.000			-9.505			-1.901
75501.000			-9.505			-1.901
75600.000			-9.505			-1.901
75701.000			-9.505			-1.901
75802.000			-9.505			-1.901
75900.000			-9.504			-1.901
76000.000			-9.503			-1.901
76101.000			-9.503			-1.901
76200.000			-9.502			-1.900
76300.000			-9.502			-1.900
76400.000			-9.503			-1.901
76501.000			-9.501			-1.900
76602.000			-9.501			-1.900
76700.000			-9.501			-1.900
76800.000			-9.502			-1.900
76901.000			-9.502			-1.900
77000.000			-9.500			-1.900
77100.000			-9.501			-1.900
77201.000			-9.500			-1.900
77301.000			-9.500			-1.900
77401.000			-9.499			-1.900
77501.000			-9.499			-1.900
77600.000			-9.499			-1.900
77700.000			-9.499			-1.900
77801.000			-9.499			-1.900
77900.000			-9.499			-1.900
78000.000			-9.498			-1.900
78101.000			-9.498			-1.900
78201.000			-9.498			-1.900
78301.000			-9.498			-1.900
78401.000			-9.496			-1.899
78500.000			-9.496			-1.899
78600.000			-9.497			-1.899
78701.000			-9.496			-1.899
78800.000			-9.495			-1.899
78900.000			-9.497			-1.899
79001.000			-9.497			-1.899
79101.000			-9.495			-1.899
79201.000			-9.494			-1.899
79301.000			-9.495			-1.899
79400.000			-9.495			-1.899
79500.000			-9.494			-1.899
79600.000			-9.494			-1.899
79700.000			-9.494			-1.899
79801.000			-9.493			-1.899
79901.000			-9.493			-1.899
80001.000			-9.494			-1.899
80102.000			-9.494			-1.899
80200.000			-9.492			-1.898
80300.000			-9.492			-1.898
80401.000			-9.492			-1.898
80500.000			-9.491			-1.898
80600.000			-9.491			-1.898
80701.000			-9.491			-1.898
80801.000			-9.492			-1.898
80901.000			-9.491			-1.898
81001.000			-9.491			-1.898
81100.000			-9.490			-1.898
81200.000			-9.489			-1.898
81301.000			-9.489			-1.898
81400.000			-9.490			-1.898
81500.000			-9.489			-1.898
81602.000			-9.489			-1.898
81701.000			-9.489			-1.898
81800.000			-9.489			-1.898
81901.000			-9.488			-1.898
82000.000			-9.488			-1.898
82100.000			-9.487			-1.897
82201.000			-9.488			-1.898
82300.000			-9.489			-1.898
82401.000			-9.488			-1.898
82502.000			-9.487			-1.897
82601.000			-9.487			-1.897
82700.000			-9.486			-1.897
82800.000			-9.486			-1.897
82900.000			-9.486			-1.897
83001.000			-9.486			-1.897
83100.000			-9.485			-1.897
83200.000			-9.485			-1.897
83302.000			-9.485			-1.897
83401.000			-9.485			-1.897
83500.000			-9.485			-1.897
83601.000			-9.483			-1.897
83700.000			-9.484			-1.897
83800.000			-9.483			-1.897
83901.000			-9.484			-1.897
84000.000			-9.485			-1.897
84101.000			-9.484			-1.897
84202.000			-9.483			-1.897
84301.000			-9.483			-1.897
84400.000			-9.482			-1.896
84501.000			-9.481			-1.896
84600.000			-9.480			-1.896
84700.000			-9.481			-1.896
84801.000			-9.481			-1.896
84900.000			-9.481			-1.896
85001.000			-9.480			-1.896
85102.000			-9.480			-1.896
85200.000			-9.481			-1.896
85300.000			-9.480			-1.896
85401.000			-9.479			-1.896
85500.000			-9.479			-1.896
85600.000			-9.478			-1.896
85701.000			-9.477			-1.895
85801.000			-9.478			-1.896
85902.000			-9.478			-1.896
86001.000			-9.477			-1.895
86100.000			-9.477			-1.895
86201.000			-9.477			-1.895
86300.000			-9.476			-1.895
86400.000			-9.476			-1.895
86501.000			-9.477			-1.895
86600.000			-9.477			-1.895
86701.000			-9.475			-1.895
86802.000			-9.475			-1.895
86900.000			-9.475			-1.895
87000.000			-9.475			-1.895
87101.000			-9.475			-1.895
87200.000			-9.475			-1.895
87300.000			-9.474			-1.895
87401.000			-9.474			-1.895
87501.000			-9.474			-1.895
87601.000			-9.474			-1.895
87701.000			-9.474			-1.895
87800.000			-9.473			-1.895
87900.000			-9.473			-1.895
88001.000			-9.472			-1.894
88100.000			-9.472			-1.894
88200.000			-9.472			-1.894
88301.000			-9.472			-1.894
88401.000			-9.472			-1.894
88501.000			-9.471			-1.894
88601.000			-9.470			-1.894
88700.000			-9.470			-1.894
88800.000			-9.471			-1.894
88901.000			-9.471			-1.894
89000.000			-9.471			-1.894
89100.000			-9.469			-1.894
89202.000			-9.470			-1.894
89301.000			-9.471			-1.894
89402.000			-9.470			-1.894
89500.000			-9.469			-1.894
89600.000			-9.469			-1.894
89701.000			-9.469			-1.894
89800.000			-9.467			-1.893
89900.000			-9.467			-1.893
90001.000			-9.468			-1.894
90101.000			-9.467			-1.893
90201.000			-9.468			-1.894
90301.000			-9.468			-1.894
90400.000			-9.467			-1.893
90500.000			-9.466			-1.893
90601.000			-9.466			-1.893
90700.000			-9.466			-1.893
90800.000			-9.465			-1.893
90902.000			-9.465			-1.893
91001.000			-9.465			-1.893
91101.000			-9.465			-1.893
91201.000			-9.465			-1.893
91300.000			-9.466			-1.893
91400.000			-9.465			-1.893
91501.000			-9.465			-1.893
91600.000			-9.464			-1.893
91700.000			-9.464			-1.893
91802.000			-9.463			-1.893
91901.000			-9.462			-1.892
92000.000			-9.463			-1.893
92101.000			-9.462			-1.892
92200.000			-9.461			-1.892
92300.000			-9.462			-1.892
92400.000			-9.462			-1.892
92500.000			-9.461			-1.892
92602.000			-9.460			-1.892
92701.000			-9.460			-1.892
92800.000			-9.461			-1.892
92901.000			-9.460			-1.892
93000.000			-9.460			-1.892
93100.000			-9.460			-1.892
93201.000			-9.459			-1.892
93300.000			-9.460			-1.892
93401.000			-9.460			-1.892
93502.000			-9.459			-1.892
93600.000			-9.459			-1.892
93700.000			-9.458			-1.892
93801.000			-9.458			-1.892
93900.000			-9.459			-1.892
94000.000			-9.458			-1.892
94101.000			-9.458			-1.892
94201.000			-9.457			-1.891
94301.000			-9.457			-1.891
94402.000			-9.456			-1.891
94500.000			-9.456			-1.891
94600.000			-9.455			-1.891
94701.000			-9.455			-1.891
94800.000			-9.456			-1.891
94900.000			-9.456			-1.891
95001.000			-9.455			-1.891
95101.000			-9.455			-1.891
95201.000			-9.454			-1.891
95301.000			-9.454			-1.891
95400.000			-9.453			-1.891
95500.000			-9.453			-1.891
95600.000			-9.452			-1.890
95700.000			-9.452			-1.890
95801.000			-9.453			-1.891
95901.000			-9.452			-1.890
96001.000			-9.451			-1.890
96101.000			-9.451			-1.890
96200.000			-9.451			-1.890
96300.000			-9.452			-1.890
96401.000			-9.452			-1.890
96500.000			-9.450			-1.890
96600.000			-9.450			-1.890
96702.000			-9.449			-1.890
96801.000			-9.449			-1.890
96901.000			-9.448			-1.890
97001.000			-9.448			-1.890
97100.000			-9.448			-1.890
97200.000			-9.449			-1.890
97301.000			-9.448			-1.890
97400.000			-9.449			-1.890
97500.000			-9.448			-1.890
97602.000			-9.447			-1.889
97701.000			-9.447			-1.889
97800.000			-9.447			-1.889
97901.000			-9.446			-1.889
98000.000			-9.446			-1.889
98100.000			-9.446			-1.889
98201.000			-9.446			-1.889
98300.000			-9.446			-1.889
98401.000			-9.446			-1.889
98502.000			-9.446			-1.889
98601.000			-9.447			-1.889
98700.000			-9.445			-1.889
98800.000			-9.446			-1.889
98900.000			-9.445			-1.889
99001.000			-9.445			-1.889
99100.000			-9.445			-1.889
99200.000			-9.445			-1.889
99302.000			-9.444			-1.889
99401.000			-9.444			-1.889
99500.000			-9.444			-1.889
99601.000			-9.442			-1.888
99700.000			-9.442			-1.888
99800.000			-9.442			-1.888
99901.000			-9.442			-1.888
100000.000			-9.443			-1.889
100100.000			-9.442			-1.888
100202.000			-9.442			-1.888
100301.000			-9.441			-1.888
100400.000			-9.441			-1.888
100501.000			-9.441			-1.888
100600.000			-9.441			-1.888
100700.000			-9.441			-1.888
100801.000			-9.440			-1.888
100900.000			-9.439			-1.888
101001.000			-9.439			-1.888
101102.000			-9.439			-1.888
101200.000			-9.439			-1.888
101300.000			-9.439			-1.888
101401.000			-9.439			-1.888
101500.000			-9.440			-1.888
101600.000			-9.439			-1.888
101701.000			-9.439			-1.888
101801.000			-9.438			-1.888
101902.000			-9.439			-1.888
102001.000			-9.439			-1.888
102100.000			-9.438			-1.888
102201.000			-9.437			-1.887
102300.000			-9.438			-1.888
102400.000			-9.437			-1.887
102501.000			-9.437			-1.887
102600.000			-9.437			-1.887
102701.000			-9.437			-1.887
102802.000			-9.437			-1.887
102900.000			-9.436			-1.887
103000.000			-9.436			-1.887
103101.000			-9.436			-1.887
103200.000			-9.436			-1.887
103300.000			-9.436			-1.887
103401.000			-9.436			-1.887
103501.000			-9.435			-1.887
103601.000			-9.435			-1.887
103701.000			-9.435			-1.887
103800.000			-9.436			-1.887
103900.000			-9.436			-1.887
104001.000			-9.435			-1.887
104100.000			-9.434			-1.887
104200.000			-9.434			-1.887
104302.000			-9.433			-1.887
104401.000			-9.434			-1.887
104501.000			-9.432			-1.886
104601.000			-9.432			-1.886
104700.000			-9.433			-1.887
104800.000			-9.433			-1.887
104901.000			-9.433			-1.887
105000.000			-9.433			-1.887
105100.000			-9.432			-1.886
105202.000			-9.433			-1.887
105301.000			-9.432			-1.886
105401.000			-9.431			-1.886
105500.000			-9.431			-1.886
105600.000			-9.431			-1.886
105701.000			-9.431			-1.886
105800.000			-9.431			-1.886
105900.000			-9.432			-1.886
106002.000			-9.432			-1.886
106101.000			-9.431			-1.886
106200.000			-9.432			-1.886
106301.000			-9.432			-1.886
106400.000			-9.431			-1.886
106500.000			-9.430			-1.886
106601.000			-9.430			-1.886
106700.000			-9.430			-1.886
106801.000			-9.429			-1.886
106902.000			-9.429			-1.886
107000.000			-9.430			-1.886
107100.000			-9.430			-1.886
107201.000			-9.429			-1.886
107300.000			-9.429			-1.886
107400.000			-9.429			-1.886
107501.000			-9.428			-1.886
107601.000			-9.429			-1.886
107701.000			-9.429			-1.886
107802.000			-9.428			-1.886
107900.000			-9.427			-1.885
108000.000			-9.427			-1.885
108101.000			-9.427			-1.885
108200.000			-9.428			-1.886
108300.000			-9.428			-1.886
108400.000			-9.426			-1.885
108501.000			-9.425			-1.885
108602.000			-9.426			-1.885
108701.000			-9.426			-1.885
108800.000			-9.426			-1.885
108901.000			-9.426			-1.885
109000.000			-9.426			-1.885
109100.000			-9.425			-1.885
109201.000			-9.425			-1.885
109300.000			-9.426			-1.885
109401.000			-9.425			-1.885
109502.000			-9.424			-1.885
109600.000			-9.424			-1.885
109700.000			-9.425			-1.885
109801.000			-9.425			-1.885
109900.000			-9.425			-1.885
110000.000			-9.424			-1.885
110101.000			-9.424			-1.885
110201.000			-9.424			-1.885
110301.000			-9.422			-1.884
110401.000			-9.422			-1.884
110500.000			-9.423			-1.885
110600.000			-9.423			-1.885
110701.000			-9.423			-1.885
110800.000			-9.422			-1.884
110900.000			-9.423			-1.885
111002.000			-9.422			-1.884
111101.000			-9.422			-1.884
111200.000			-9.421			-1.884
111301.000			-9.421			-1.884
111400.000			-9.422			-1.884
111500.000			-9.422			-1.884
111600.000			-9.421			-1.884
111700.000			-9.421			-1.884
111802.000			-9.420			-1.884
111901.000			-9.420			-1.884
112001.000			-9.419			-1.884
112101.000			-9.419			-1.884
112200.000			-9.418			-1.884
112300.000			-9.419			-1.884
112401.000			-9.420			-1.884
112500.000			-9.420			-1.884
112600.000			-9.420			-1.884
112702.000			-9.419			-1.884
112801.000			-9.419			-1.884
112900.000			-9.419			-1.884
113001.000			-9.419			-1.884
113100.000			-9.418			-1.884
113200.000			-9.418			-1.884
113301.000			-9.418			-1.884
113400.000			-9.418			-1.884
113501.000			-9.418			-1.884
113602.000			-9.417			-1.883
113700.000			-9.417			-1.883
113800.000			-9.416			-1.883
113901.000			-9.416			-1.883
114000.000			-9.416			-1.883
114100.000			-9.415			-1.883
114201.000			-9.415			-1.883
114301.000			-9.415			-1.883
114401.000			-9.416			-1.883
114501.000			-9.416			-1.883
114600.000			-9.415			-1.883
114700.000			-9.415			-1.883
114800.000			-9.416			-1.883
114900.000			-9.415			-1.883
115001.000			-9.414			-1.883
115100.000			-9.414			-1.883
115201.000			-9.414			-1.883
115302.000			-9.413			-1.883
115400.000			-9.413			-1.883
115500.000			-9.413			-1.883
115601.000			-9.413			-1.883
115700.000			-9.411			-1.882
115800.000			-9.411			-1.882
115901.000			-9.412			-1.882
116001.000			-9.412			-1.882
116101.000			-9.411			-1.882
116201.000			-9.412			-1.882
116300.000			-9.411			-1.882
116400.000			-9.411			-1.882
116501.000			-9.411			-1.882
116600.000			-9.410			-1.882
116700.000			-9.410			-1.882
116802.000			-9.410			-1.882
116901.000			-9.411			-1.882
117000.000			-9.411			-1.882
117101.000			-9.410			-1.882
117200.000			-9.410			-1.882
117300.000			-9.409			-1.882
117401.000			-9.408			-1.882
117500.000			-9.409			-1.882
117601.000			-9.408			-1.882
117702.000			-9.409			-1.882
117801.000			-9.409			-1.882
117900.000			-9.409			-1.882
118000.000			-9.408			-1.882
118100.000			-9.409			-1.882
118201.000			-9.409			-1.882
118300.000			-9.409			-1.882
118400.000			-9.408			-1.882
118502.000			-9.408			-1.882
118601.000			-9.408			-1.882
118700.000			-9.408			-1.882
118801.000			-9.408			-1.882
118900.000			-9.408			-1.882
119000.000			-9.407			-1.881
119101.000			-9.407			-1.881
119200.000			-9.406			-1.881
119300.000			-9.406			-1.881
119402.000			-9.406			-1.881
119501.000			-9.405			-1.881
119600.000			-9.405			-1.881
119701.000			-9.405			-1.881
119800.000			-9.404			-1.881
119900.000			-9.404			-1.881
120001.000			-9.404			-1.881
120100.000			-9.404			-1.881
120201.000			-9.402			-1.880
120302.000			-9.402			-1.880
120400.000			-9.401			-1.880
120500.000			-9.401			-1.880
120601.000			-9.400			-1.880
120700.000			-9.400			-1.880
120800.000			-9.401			-1.880
120901.000			-9.401			-1.880
121001.000			-9.401			-1.880
121102.000			-9.400			-1.880
121200.000			-9.400			-1.880
121300.000			-9.401			-1.880
121401.000			-9.402			-1.880
121500.000			-9.402			-1.880
121600.000			-9.401			-1.880
121701.000			-9.400			-1.880
121801.000			-9.401			-1.880
121901.000			-9.400			-1.880
122001.000			-9.400			-1.880
122100.000			-9.401			-1.880
122200.000			-9.400			-1.880
122301.000			-9.401			-1.880
122400.000			-9.401			-1.880
122500.000			-9.399			-1.880
122602.000			-9.399			-1.880
122701.000			-9.399			-1.880
122800.000			-9.400			-1.880
122901.000			-9.400			-1.880
123000.000			-9.400			-1.880
123100.000			-9.400			-1.880
123201.000			-9.399			-1.880
123300.000			-9.399			-1.880
123400.000			-9.399			-1.880
123502.000			-9.398			-1.880
123601.000			-9.398			-1.880
123700.000			-9.398			-1.880
123801.000			-9.399			-1.880
123900.000			-9.399			-1.880
124000.000			-9.397			-1.879
124101.000			-9.397			-1.879
124200.000			-9.397			-1.879
124302.000			-9.397			-1.879
124401.000			-9.397			-1.879
124501.000			-9.397			-1.879
124601.000			-9.398			-1.880
124700.000			-9.397			-1.879
124800.000			-9.396			-1.879
124901.000			-9.396			-1.879
125000.000			-9.396			-1.879
125100.000			-9.397			-1.879
125202.000			-9.397			-1.879
125301.000			-9.396			-1.879
125400.000			-9.395			-1.879
125501.000			-9.395			-1.879
125600.000			-9.395			-1.879
125700.000			-9.396			-1.879
125801.000			-9.396			-1.879
125900.000			-9.395			-1.879
126000.000			-9.394			-1.879
126102.000			-9.394			-1.879
126201.000			-9.394			-1.879
126300.000			-9.395			-1.879
126401.000			-9.395			-1.879
126500.000			-9.393			-1.879
126600.000			-9.393			-1.879
126701.000			-9.393			-1.879
126800.000			-9.394			-1.879
126900.000			-9.394			-1.879
127002.000			-9.394			-1.879
127101.000			-9.394			-1.879
127200.000			-9.393			-1.879
127301.000			-9.392			-1.878
127400.000			-9.392			-1.878
127500.000			-9.392			-1.878
127600.000			-9.391			-1.878
127700.000			-9.392			-1.878
127802.000			-9.392			-1.878
127901.000			-9.392			-1.878
128001.000			-9.391			-1.878
128101.000			-9.390			-1.878
128200.000			-9.391			-1.878
128300.000			-9.390			-1.878
128401.000			-9.391			-1.878
128500.000			-9.390			-1.878
128600.000			-9.390			-1.878
128702.000			-9.390			-1.878
128801.000			-9.390			-1.878
128900.000			-9.390			-1.878
129001.000			-9.390			-1.878
129100.000			-9.389			-1.878
129200.000			-9.390			-1.878
129301.000			-9.390			-1.878
129400.000			-9.389			-1.878
129500.000			-9.389			-1.878
129602.000			-9.388			-1.878
129701.000			-9.387			-1.877
129800.000			-9.386			-1.877
129901.000			-9.387			-1.877
130000.000			-9.387			-1.877
130100.000			-9.387			-1.877
130201.000			-9.387			-1.877
130300.000			-9.387			-1.877
130400.000			-9.388			-1.878
130502.000			-9.386			-1.877
130601.000			-9.387			-1.877
130700.000			-9.387			-1.877
130800.000			-9.387			-1.877
130900.000			-9.386			-1.877
131001.000			-9.386			-1.877
131100.000			-9.385			-1.877
131200.000			-9.385			-1.877
131302.000			-9.385			-1.877
131401.000			-9.385			-1.877
131501.000			-9.385			-1.877
131601.000			-9.385			-1.877
131700.000			-9.385			-1.877
131800.000			-9.385			-1.877
131901.000			-9.385			-1.877
132000.000			-9.384			-1.877
132100.000			-9.384			-1.877
132201.000			-9.384			-1.877
132301.000			-9.384			-1.877
132401.000			-9.384			-1.877
132501.000			-9.385			-1.877
132600.000			-9.385			-1.877
132700.000			-9.384			-1.877
132801.000			-9.383			-1.877
132900.000			-9.383			-1.877
133000.000			-9.383			-1.877
133101.000			-9.382			-1.876
133201.000			-9.382			-1.876
133301.000			-9.382			-1.876
133401.000			-9.382			-1.876
133500.000			-9.383			-1.877
133600.000			-9.383			-1.877
133701.000			-9.382			-1.876
133800.000			-9.382			-1.876
133900.000			-9.382			-1.876
134000.000			-9.382			-1.876
134101.000			-9.382			-1.876
134202.000			-9.381			-1.876
134301.000			-9.381			-1.876
134400.000			-9.381			-1.876
134501.000			-9.380			-1.876
134600.000			-9.379			-1.876
134700.000			-9.379			-1.876
134801.000			-9.379			-1.876
134900.000			-9.378			-1.876
135001.000			-9.378			-1.876
135102.000			-9.378			-1.876
135201.000			-9.378			-1.876
135300.000			-9.378			-1.876
135401.000			-9.378			-1.876
135500.000			-9.378			-1.876
135600.000			-9.378			-1.876
135701.000			-9.379			-1.876
135800.000			-9.378			-1.876
135900.000			-9.377			-1.875
136002.000			-9.376			-1.875
136101.000			-9.377			-1.875
136201.000			-9.377			-1.875
136301.000			-9.377			-1.875
136400.000			-9.377			-1.875
136500.000			-9.376			-1.875
136601.000			-9.376			-1.875
136700.000			-9.376			-1.875
136800.000			-9.376			-1.875
136902.000			-9.376			-1.875
137001.000			-9.375			-1.875
137102.000			-9.375			-1.875
137200.000			-9.374			-1.875
137300.000			-9.374			-1.875
137401.000			-9.374			-1.875
137500.000			-9.374			-1.875
137600.000			-9.374			-1.875
137701.000			-9.374			-1.875
137800.000			-9.374			-1.875
137901.000			-9.374			-1.875
138002.000			-9.374			-1.875
138100.000			-9.374			-1.875
138200.000			-9.373			-1.875
138301.000			-9.372			-1.874
138400.000			-9.373			-1.875
138500.000			-9.372			-1.874
138601.000			-9.373			-1.875
138700.000			-9.373			-1.875
138801.000			-9.372			-1.874
138902.000			-9.372			-1.874
139001.000			-9.372			-1.874
139100.000			-9.372			-1.874
139201.000			-9.372			-1.874
139300.000			-9.371			-1.874
139400.000			-9.371			-1.874
139501.000			-9.371			-1.874
139600.000			-9.370			-1.874
139700.000			-9.369			-1.874
139802.000			-9.370			-1.874
139901.000			-9.370			-1.874
140000.000			-9.370			-1.874
140101.000			-9.369			-1.874
140200.000			-9.368			-1.874
140300.000			-9.369			-1.874
140400.000			-9.369			-1.874
140500.000			-9.369			-1.874
140601.000			-9.369			-1.874
140701.000			-9.370			-1.874
140801.000			-9.369			-1.874
140901.000			-9.368			-1.874
141000.000			-9.368			-1.874
141100.000			-9.369			-1.874
141201.000			-9.369			-1.874
141300.000			-9.369			-1.874
141400.000			-9.368			-1.874
141501.000			-9.368			-1.874
141601.000			-9.368			-1.874
141701.000			-9.369			-1.874
141802.000			-9.368			-1.874
141900.000			-9.367			-1.873
142000.000			-9.368			-1.874
142101.000			-9.368			-1.874
142200.000			-9.368			-1.874
142300.000			-9.367			-1.873
142401.000			-9.368			-1.874
142500.000			-9.368			-1.874
142601.000			-9.367			-1.873
142702.000			-9.367			-1.873
142800.000			-9.367			-1.873
142900.000			-9.365			-1.873
143001.000			-9.365			-1.873
143100.000			-9.366			-1.873
143200.000			-9.366			-1.873
143301.000			-9.367			-1.873
143400.000			-9.365			-1.873
143502.000			-9.365			-1.873
143601.000			-9.365			-1.873
143701.000			-9.364			-1.873
143801.000			-9.364			-1.873
143900.000			-9.365			-1.873
144000.000			-9.365			-1.873
144101.000			-9.364			-1.873
144200.000			-9.363			-1.873
144300.000			-9.363			-1.873
144401.000			-9.363			-1.873
144501.000			-9.363			-1.873
144601.000			-9.362			-1.872
144701.000			-9.363			-1.873
144800.000			-9.363			-1.873
144900.000			-9.363			-1.873
145001.000			-9.363			-1.873
145100.000			-9.362			-1.872
145200.000			-9.361			-1.872
145301.000			-9.361			-1.872
145401.000			-9.362			-1.872
145501.000			-9.362			-1.872
145601.000			-9.361			-1.872
145700.000			-9.361			-1.872
145800.000			-9.362			-1.872
145901.000			-9.361			-1.872
146000.000			-9.361			-1.872
146100.000			-9.360			-1.872
146201.000			-9.360			-1.872
146301.000			-9.360			-1.872
146401.000			-9.360			-1.872
146501.000			-9.360			-1.872
146600.000			-9.360			-1.872
146700.000			-9.360			-1.872
146800.000			-9.360			-1.872
146900.000			-9.359			-1.872
147001.000			-9.359			-1.872
147100.000			-9.359			-1.872
147201.000			-9.359			-1.872
147302.000			-9.358			-1.872
147401.000			-9.358			-1.872
147500.000			-9.358			-1.872
147601.000			-9.358			-1.872
147700.000			-9.359			-1.872
147800.000			-9.358			-1.872
147901.000			-9.357			-1.871
148000.000			-9.357			-1.871
148100.000			-9.358			-1.872
148202.000			-9.358			-1.872
148301.000			-9.357			-1.871
148400.000			-9.357			-1.871
148501.000			-9.357			-1.871
148600.000			-9.356			-1.871
148700.000			-9.356			-1.871
148801.000			-9.356			-1.871
148900.000			-9.355			-1.871
149000.000			-9.355			-1.871
149102.000			-9.355			-1.871
149201.000			-9.355			-1.871
149301.000			-9.354			-1.871
149401.000			-9.356			-1.871
149500.000			-9.355			-1.871
149600.000			-9.355			-1.871
149701.000			-9.354			-1.871
149800.000			-9.354			-1.871
149900.000			-9.353			-1.871
150000.000			-9.354			-1.871
150101.000			-9.355			-1.871
150202.000			-9.355			-1.871
150301.000			-9.355			-1.871
150400.000			-9.354			-1.871
150501.000			-9.353			-1.871
150600.000			-9.353			-1.871
150700.000			-9.353			-1.871
150801.000			-9.352			-1.870
150900.000			-9.352			-1.870
151001.000			-9.353			-1.871
151102.000			-9.354			-1.871
151201.000			-9.352			-1.870
151300.000			-9.351			-1.870
151401.000			-9.351			-1.870
151500.000			-9.353			-1.871
151600.000			-9.353			-1.871
151701.000			-9.352			-1.870
151800.000			-9.352			-1.870
151901.000			-9.353			-1.871
152002.000			-9.353			-1.871
152101.000			-9.351			-1.870
152200.000			-9.351			-1.870
152301.000			-9.351			-1.870
152400.000			-9.351			-1.870
152500.000			-9.351			-1.870
152601.000			-9.351			-1.870
152700.000			-9.351			-1.870
152801.000			-9.351			-1.870
152902.000			-9.351			-1.870
153001.000			-9.351			-1.870
153100.000			-9.351			-1.870
153200.000			-9.351			-1.870
153300.000			-9.350			-1.870
153401.000			-9.350			-1.870
153500.000			-9.351			-1.870
153600.000			-9.351			-1.870
153702.000			-9.350			-1.870
153801.000			-9.350			-1.870
153901.000			-9.350			-1.870
154001.000			-9.349			-1.870
154100.000			-9.350			-1.870
154200.000			-9.350			-1.870
154301.000			-9.349			-1.870
154400.000			-9.350			-1.870
154500.000			-9.350			-1.870
154601.000			-9.348			-1.870
154701.000			-9.348			-1.870
154801.000			-9.348			-1.870
154901.000			-9.348			-1.870
155000.000			-9.349			-1.870
155100.000			-9.349			-1.870
155201.000			-9.348			-1.870
155300.000			-9.349			-1.870
155400.000			-9.348			-1.870
155501.000			-9.348			-1.870
155601.000			-9.348			-1.870
155701.000			-9.348			-1.870
155802.000			-9.347			-1.869
155900.000			-9.347			-1.869
156000.000			-9.347			-1.869
156101.000			-9.347			-1.869
156200.000			-9.347			-1.869
156300.000			-9.347			-1.869
156400.000			-9.347			-1.869
156500.000			-9.347			-1.869
156602.000			-9.346			-1.869
156701.000			-9.346			-1.869
156801.000			-9.346			-1.869
156901.000			-9.346			-1.869
157000.000			-9.346			-1.869
157100.000			-9.347			-1.869
157201.000			-9.347			-1.869
157300.000			-9.345			-1.869
157400.000			-9.345			-1.869
157501.000			-9.345			-1.869
157601.000			-9.344			-1.869
157701.000			-9.344			-1.869
157801.000			-9.344			-1.869
157900.000			-9.344			-1.869
158000.000			-9.345			-1.869
158101.000			-9.343			-1.869
158200.000			-9.345			-1.869
158300.000			-9.345			-1.869
158401.000			-9.344			-1.869
158501.000			-9.344			-1.869
158601.000			-9.344			-1.869
158702.000			-9.343			-1.869
158800.000			-9.343			-1.869
158900.000			-9.343			-1.869
159001.000			-9.344			-1.869
159100.000			-9.343			-1.869
159200.000			-9.343			-1.869
159301.000			-9.343			-1.869
159400.000			-9.342			-1.868
159502.000			-9.342			-1.868
159601.000			-9.343			-1.869
159700.000			-9.342			-1.868
159801.000			-9.341			-1.868
159900.000			-9.342			-1.868
160000.000			-9.342			-1.868
160101.000			-9.341			-1.868
160200.000			-9.341			-1.868
160300.000			-9.341			-1.868
160402.000			-9.341			-1.868
160501.000			-9.342			-1.868
160600.000			-9.341			-1.868
160701.000			-9.340			-1.868
160800.000			-9.340			-1.868
160900.000			-9.340			-1.868
161001.000			-9.340			-1.868
161100.000			-9.340			-1.868
161200.000			-9.340			-1.868
161302.000			-9.341			-1.868
161401.000			-9.339			-1.868
161500.000			-9.339			-1.868
161601.000			-9.340			-1.868
161700.000			-9.338			-1.868
161800.000			-9.339			-1.868
161901.000			-9.339			-1.868
162000.000			-9.339			-1.868
162100.000			-9.338			-1.868
162202.000			-9.338			-1.868
162301.000			-9.339			-1.868
162401.000			-9.339			-1.868
162501.000			-9.339			-1.868
162600.000			-9.338			-1.868
162700.000			-9.337			-1.867
162800.000			-9.337			-1.867
162900.000			-9.337			-1.867
163001.000			-9.337			-1.867
163100.000			-9.336			-1.867
163201.000			-9.337			-1.867
163302.000			-9.337			-1.867
163400.000			-9.337			-1.867
163500.000			-9.337			-1.867
163601.000			-9.336			-1.867
163700.000			-9.337			-1.867
163800.000			-9.336			-1.867
163901.000			-9.336			-1.867
164000.000			-9.336			-1.867
164101.000			-9.336			-1.867
164202.000			-9.336			-1.867
164300.000			-9.336			-1.867
164400.000			-9.336			-1.867
164501.000			-9.336			-1.867
164600.000			-9.335			-1.867
164700.000			-9.335			-1.867
164801.000			-9.335			-1.867
164900.000			-9.335			-1.867
165001.000			-9.335			-1.867
165102.000			-9.335			-1.867
165201.000			-9.334			-1.867
165300.000			-9.334			-1.867
165401.000			-9.333			-1.867
165500.000			-9.334			-1.867
165600.000			-9.334			-1.867
165701.000			-9.334			-1.867
165800.000			-9.334			-1.867
165900.000			-9.333			-1.867
166002.000			-9.333			-1.867
166101.000			-9.332			-1.866
166201.000			-9.332			-1.866
166300.000			-9.333			-1.867
166400.000			-9.333			-1.867
166501.000			-9.333			-1.867
166600.000			-9.333			-1.867
166700.000			-9.333			-1.867
166801.000			-9.332			-1.866
166901.000			-9.332			-1.866
167001.000			-9.332			-1.866
167101.000			-9.332			-1.866
167200.000			-9.333			-1.867
167300.000			-9.333			-1.867
167401.000			-9.331			-1.866
167500.000			-9.332			-1.866
167600.000			-9.331			-1.866
167701.000			-9.330			-1.866
167801.000			-9.331			-1.866
167901.000			-9.331			-1.866
168002.000			-9.331			-1.866
168100.000			-9.330			-1.866
168200.000			-9.329			-1.866
168301.000			-9.330			-1.866
168400.000			-9.331			-1.866
168500.000			-9.331			-1.866
168601.000			-9.330			-1.866
168700.000			-9.330			-1.866
168801.000			-9.330			-1.866
168902.000			-9.329			-1.866
169000.000			-9.329			-1.866
169100.000			-9.329			-1.866
169200.000			-9.330			-1.866
169300.000			-9.329			-1.866
169401.000			-9.329			-1.866
169500.000			-9.328			-1.866
169600.000			-9.329			-1.866
169702.000			-9.329			-1.866
169801.000			-9.328			-1.866
169901.000			-9.328			-1.866
170001.000			-9.328			-1.866
170100.000			-9.328			-1.866
170200.000			-9.329			-1.866
170301.000			-9.328			-1.866
170400.000			-9.326			-1.865
170500.000			-9.326			-1.865
170601.000			-9.325			-1.865
170701.000			-9.325			-1.865
170801.000			-9.325			-1.865
170901.000			-9.324			-1.865
171000.000			-9.324			-1.865
171100.000			-9.324			-1.865
171201.000			-9.323			-1.865
171300.000			-9.324			-1.865
171400.000			-9.324			-1.865
171501.000			-9.324			-1.865
171601.000			-9.323			-1.865
171701.000			-9.323			-1.865
171801.000			-9.323			-1.865
171900.000			-9.322			-1.864
172000.000			-9.322			-1.864
172101.000			-9.322			-1.864
172200.000			-9.323			-1.865
172300.000			-9.322			-1.864
172400.000			-9.322			-1.864
172501.000			-9.321			-1.864
172602.000			-9.321			-1.864
172700.000			-9.321			-1.864
172800.000			-9.321			-1.864
172901.000			-9.322			-1.864
173000.000			-9.322			-1.864
173100.000			-9.321			-1.864
173201.000			-9.321			-1.864
173300.000			-9.321			-1.864
173401.000			-9.321			-1.864
173502.000			-9.322			-1.864
173601.000			-9.322			-1.864
173700.000			-9.321			-1.864
173801.000			-9.321			-1.864
173900.000			-9.322			-1.864
174000.000			-9.320			-1.864
174101.000			-9.321			-1.864
174200.000			-9.320			-1.864
174301.000			-9.321			-1.864
174402.000			-9.321			-1.864
174501.000			-9.320			-1.864
174600.000			-9.320			-1.864
174701.000			-9.320			-1.864
174800.000			-9.320			-1.864
174900.000			-9.320			-1.864
175001.000			-9.319			-1.864
175100.000			-9.319			-1.864
175200.000			-9.317			-1.863
175302.000			-9.318			-1.864
175401.000			-9.319			-1.864
175500.000			-9.320			-1.864
175600.000			-9.319			-1.864
175700.000			-9.319			-1.864
175801.000			-9.319			-1.864
175900.000			-9.319			-1.864
176000.000			-9.319			-1.864
176101.000			-9.318			-1.864
176201.000			-9.318			-1.864
176301.000			-9.318			-1.864
176402.000			-9.317			-1.863
176500.000			-9.316			-1.863
176600.000			-9.317			-1.863
176701.000			-9.317			-1.863
176800.000			-9.316			-1.863
176900.000			-9.316			-1.863
177001.000			-9.317			-1.863
177100.000			-9.316			-1.863
177201.000			-9.317			-1.863
177302.000			-9.318			-1.864
177400.000			-9.317			-1.863
177500.000			-9.316			-1.863
177601.000			-9.316			-1.863
177700.000			-9.317			-1.863
177800.000			-9.316			-1.863
177901.000			-9.316			-1.863
178000.000			-9.316			-1.863
178101.000			-9.316			-1.863
178202.000			-9.316			-1.863
178301.000			-9.316			-1.863
178400.000			-9.316			-1.863
178501.000			-9.315			-1.863
178600.000			-9.315			-1.863
178700.000			-9.314			-1.863
178800.000			-9.315			-1.863
178900.000			-9.315			-1.863
179001.000			-9.315			-1.863
179101.000			-9.314			-1.863
179201.000			-9.314			-1.863
179302.000			-9.315			-1.863
179400.000			-9.314			-1.863
179500.000			-9.313			-1.863
179601.000			-9.314			-1.863
179700.000			-9.314			-1.863
179800.000			-9.313			-1.863
179901.000			-9.313			-1.863
180001.000			-9.312			-1.862
180101.000			-9.313			-1.863
180202.000			-9.312			-1.862
180300.000			-9.312			-1.862
180400.000			-9.312			-1.862
180501.000			-9.313			-1.863
180600.000			-9.313			-1.863
180700.000			-9.313			-1.863
180801.000			-9.313			-1.863
180901.000			-9.312			-1.862
181001.000			-9.313			-1.863
181102.000			-9.313			-1.863
181200.000			-9.312			-1.862
181300.000			-9.312			-1.862
181401.000			-9.312			-1.862
181500.000			-9.313			-1.863
181600.000			-9.313			-1.863
181701.000			-9.312			-1.862
181801.000			-9.312			-1.862
181902.000			-9.312			-1.862
182001.000			-9.312			-1.862
182100.000			-9.311			-1.862
182201.000			-9.311			-1.862
182300.000			-9.312			-1.862
182400.000			-9.311			-1.862
182501.000			-9.310			-1.862
182600.000			-9.311			-1.862
182700.000			-9.311			-1.862
182802.000			-9.311			-1.862
182901.000			-9.311			-1.862
183000.000			-9.311			-1.862
183101.000			-9.310			-1.862
183200.000			-9.309			-1.862
183300.000			-9.310			-1.862
183401.000			-9.310			-1.862
183500.000			-9.310			-1.862
183600.000			-9.310			-1.862
183702.000			-9.309			-1.862
183801.000			-9.310			-1.862
183900.000			-9.309			-1.862
184001.000			-9.309			-1.862
184100.000			-9.308			-1.862
184200.000			-9.309			-1.862
184301.000			-9.309			-1.862
184400.000			-9.308			-1.862
184500.000			-9.308			-1.862
184602.000			-9.309			-1.862
184701.000			-9.309			-1.862
184801.000			-9.308			-1.862
184901.000			-9.308			-1.862
185000.000			-9.308			-1.862
185100.000			-9.307			-1.861
185200.000			-9.307			-1.861
185300.000			-9.308			-1.862
185401.000			-9.307			-1.861
185501.000			-9.308			-1.862
185601.000			-9.307			-1.861
185702.000			-9.307			-1.861
185800.000			-9.306			-1.861
185900.000			-9.306			-1.861
186001.000			-9.306			-1.861
186100.000			-9.305			-1.861
186200.000			-9.305			-1.861
186301.000			-9.306			-1.861
186400.000			-9.306			-1.861
186501.000			-9.305			-1.861
186602.000			-9.305			-1.861
186701.000			-9.306			-1.861
186800.000			-9.306			-1.861
186901.000			-9.305			-1.861
187000.000			-9.306			-1.861
187100.000			-9.305			-1.861
187201.000			-9.305			-1.861
187300.000			-9.305			-1.861
187401.000			-9.306			-1.861
187502.000			-9.306			-1.861
187601.000			-9.305			-1.861
187700.000			-9.305			-1.861
187801.000			-9.305			-1.861
187900.000			-9.306			-1.861
188000.000			-9.306			-1.861
188101.000			-9.305			-1.861
188200.000			-9.305			-1.861
188300.000			-9.304			-1.861
188402.000			-9.304			-1.861
188501.000			-9.304			-1.861
188601.000			-9.304			-1.861
188700.000			-9.304			-1.861
188800.000			-9.304			-1.861
188901.000			-9.303			-1.861
189000.000			-9.302			-1.860
189100.000			-9.303			-1.861
189201.000			-9.303			-1.861
189301.000			-9.304			-1.861
189401.000			-9.304			-1.861
189501.000			-9.303			-1.861
189600.000			-9.303			-1.861
189700.000			-9.303			-1.861
189801.000			-9.303			-1.861
189900.000			-9.303			-1.861
190000.000			-9.303			-1.861
190101.000			-9.303			-1.861
190201.000			-9.303			-1.861
190301.000			-9.303			-1.861
190402.000			-9.303			-1.861
190500.000			-9.303			-1.861
190600.000			-9.303			-1.861
190701.000			-9.302			-1.860
190800.000			-9.302			-1.860
190900.000			-9.301			-1.860
191001.000			-9.301			-1.860
191101.000			-9.301			-1.860
191201.000			-9.301			-1.860
191302.000			-9.301			-1.860
191400.000			-9.301			-1.860
191500.000			-9.301			-1.860
191600.000			-9.301			-1.860
191700.000			-9.301			-1.860
191801.000			-9.300			-1.860
191900.000			-9.300			-1.860
192000.000			-9.300			-1.860
192102.000			-9.299			-1.860
192201.000			-9.299			-1.860
192300.000			-9.300			-1.860
192401.000			-9.300			-1.860
192500.000			-9.299			-1.860
192600.000			-9.299			-1.860
192701.000			-9.299			-1.860
192800.000			-9.299			-1.860
192900.000			-9.298			-1.860
193002.000			-9.299			-1.860
193101.000			-9.298			-1.860
193201.000			-9.298			-1.860
193301.000			-9.298			-1.860
193400.000			-9.297			-1.859
193500.000			-9.299			-1.860
193601.000			-9.298			-1.860
193700.000			-9.297			-1.859
193800.000			-9.298			-1.860
193901.000			-9.298			-1.860
194001.000			-9.298			-1.860
194101.000			-9.297			-1.859
194202.000			-9.297			-1.859
194300.000			-9.297			-1.859
194400.000			-9.297			-1.859
194501.000			-9.297			-1.859
194600.000			-9.296			-1.859
194700.000			-9.296			-1.859
194800.000			-9.296			-1.859
194900.000			-9.296			-1.859
195002.000			-9.296			-1.859
195101.000			-9.296			-1.859
195201.000			-9.295			-1.859
195301.000			-9.295			-1.859
195400.000			-9.296			-1.859
195500.000			-9.296			-1.859
195601.000			-9.296			-1.859
195700.000			-9.296			-1.859
195800.000			-9.297			-1.859
195901.000			-9.296			-1.859
196001.000			-9.296			-1.859
196101.000			-9.295			-1.859
196201.000			-9.295			-1.859
196300.000			-9.295			-1.859
196400.000			-9.295			-1.859
196501.000			-9.294			-1.859
196600.000			-9.295			-1.859
196700.000			-9.295			-1.859
196801.000			-9.294			-1.859
196900.000			-9.294			-1.859
197001.000			-9.293			-1.859
197102.000			-9.294			-1.859
197200.000			-9.293			-1.859
197300.000			-9.293			-1.859
197401.000			-9.293			-1.859
197500.000			-9.293			-1.859
197600.000			-9.293			-1.859
197701.000			-9.293			-1.859
197800.000			-9.293			-1.859
197900.000			-9.293			-1.859
198002.000			-9.292			-1.858
198101.000			-9.292			-1.858
198201.000			-9.292			-1.858
198300.000			-9.292			-1.858
198400.000			-9.292			-1.858
198501.000			-9.291			-1.858
198600.000			-9.293			-1.859
198700.000			-9.292			-1.858
198801.000			-9.292			-1.858
198901.000			-9.291			-1.858
199001.000			-9.291			-1.858
199102.000			-9.291			-1.858
199200.000			-9.291			-1.858
199300.000			-9.291			-1.858
199401.000			-9.292			-1.858
199500.000			-9.292			-1.858
199600.000			-9.291			-1.858
199701.000			-9.291			-1.858
199800.000			-9.291			-1.858
199901.000			-9.290			-1.858
200002.000			-9.291			-1.858
200101.000			-9.291			-1.858
200200.000			-9.291			-1.858
200301.000			-9.291			-1.858
200400.000			-9.289			-1.858
200500.000			-9.290			-1.858
200601.000			-9.291			-1.858
200700.000			-9.289			-1.858
200801.000			-9.289			-1.858
200902.000			-9.289			-1.858
201001.000			-9.289			-1.858
201100.000			-9.289			-1.858
201200.000			-9.289			-1.858
201300.000			-9.290			-1.858
201401.000			-9.289			-1.858
201500.000			-9.289			-1.858
201600.000			-9.289			-1.858
201701.000			-9.289			-1.858
201801.000			-9.289			-1.858
201901.000			-9.289			-1.858
202001.000			-9.289			-1.858
202100.000			-9.289			-1.858
202200.000			-9.289			-1.858
202301.000			-9.288			-1.858
202400.000			-9.288			-1.858
202500.000			-9.288			-1.858
202601.000			-9.287			-1.857
202701.000			-9.287			-1.857
202801.000			-9.287			-1.857
202902.000			-9.287			-1.857
203000.000			-9.287			-1.857
203100.000			-9.288			-1.858
203201.000			-9.286			-1.857
203300.000			-9.286			-1.857
203400.000			-9.286			-1.857
203501.000			-9.287			-1.857
203601.000			-9.287			-1.857
203701.000			-9.286			-1.857
203802.000			-9.287			-1.857
203900.000			-9.288			-1.858
204000.000			-9.287			-1.857
204101.000			-9.286			-1.857
204200.000			-9.285			-1.857
204300.000			-9.285			-1.857
204400.000			-9.286			-1.857
204500.000			-9.285			-1.857
204602.000			-9.285			-1.857
204701.000			-9.285			-1.857
204800.000			-9.285			-1.857
204901.000			-9.285			-1.857
205000.000			-9.285			-1.857
205100.000			-9.285			-1.857
205201.000			-9.285			-1.857
205300.000			-9.284			-1.857
205400.000			-9.284			-1.857
205502.000			-9.284			-1.857
205601.000			-9.284			-1.857
205701.000			-9.284			-1.857
205801.000			-9.284			-1.857
205900.000			-9.284			-1.857
206000.000			-9.283			-1.857
206101.000			-9.284			-1.857
206200.000			-9.282			-1.856
206300.000			-9.283			-1.857
206402.000			-9.283			-1.857
206501.000			-9.283			-1.857
206601.000			-9.282			-1.856
206701.000			-9.283			-1.857
206800.000			-9.282			-1.856
206900.000			-9.283			-1.857
207001.000			-9.283			-1.857
207100.000			-9.282			-1.856
207200.000			-9.282			-1.856
207301.000			-9.282			-1.856
207401.000			-9.282			-1.856
207502.000			-9.282			-1.856
207600.000			-9.282			-1.856
207700.000			-9.281			-1.856
207801.000			-9.282			-1.856
207900.000			-9.282			-1.856
208000.000			-9.281			-1.856
208101.000			-9.281			-1.856
208200.000			-9.280			-1.856
208301.000			-9.280			-1.856
208402.000			-9.280			-1.856
208501.000			-9.281			-1.856
208600.000			-9.281			-1.856
208701.000			-9.282			-1.856
208800.000			-9.281			-1.856
208900.000			-9.280			-1.856
209001.000			-9.281			-1.856
209100.000			-9.281			-1.856
209201.000			-9.280			-1.856
209302.000			-9.280			-1.856
209401.000			-9.280			-1.856
209500.000			-9.279			-1.856
209601.000			-9.279			-1.856
209700.000			-9.280			-1.856
209800.000			-9.279			-1.856
209901.000			-9.279			-1.856
210000.000			-9.279			-1.856
210100.000			-9.279			-1.856
210202.000			-9.279			-1.856
210301.000			-9.279			-1.856
210400.000			-9.280			-1.856
210501.000			-9.278			-1.856
210600.000			-9.278			-1.856
210700.000			-9.279			-1.856
210800.000			-9.278			-1.856
210900.000			-9.278			-1.856
211001.000			-9.278			-1.856
211101.000			-9.278			-1.856
211201.000			-9.278			-1.856
211302.000			-9.277			-1.855
211400.000			-9.276			-1.855
211500.000			-9.277			-1.855
211601.000			-9.277			-1.855
211700.000			-9.277			-1.855
211800.000			-9.278			-1.856
211901.000			-9.278			-1.856
212000.000			-9.278			-1.856
212101.000			-9.277			-1.855
212202.000			-9.276			-1.855
212300.000			-9.277			-1.855
212400.000			-9.276			-1.855
212501.000			-9.275			-1.855
212600.000			-9.276			-1.855
212700.000			-9.277			-1.855
212801.000			-9.277			-1.855
212900.000			-9.277			-1.855
213001.000			-9.276			-1.855
213102.000			-9.276			-1.855
213200.000			-9.276			-1.855
213300.000			-9.275			-1.855
213401.000			-9.275			-1.855
213500.000			-9.275			-1.855
213600.000			-9.275			-1.855
213701.000			-9.275			-1.855
213800.000			-9.275			-1.855
213902.000			-9.274			-1.855
214001.000			-9.275			-1.855
214100.000			-9.275			-1.855
214201.000			-9.274			-1.855
214300.000			-9.274			-1.855
214400.000			-9.274			-1.855
214501.000			-9.274			-1.855
214600.000			-9.274			-1.855
214700.000			-9.274			-1.855
214802.000			-9.275			-1.855
214901.000			-9.274			-1.855
215001.000			-9.274			-1.855
215101.000			-9.273			-1.855
215200.000			-9.273			-1.855
215300.000			-9.273			-1.855
215401.000			-9.273			-1.855
215500.000			-9.272			-1.854
215600.000			-9.272			-1.854
215702.000			-9.274			-1.855
215801.000			-9.274			-1.855
215901.000			-9.274			-1.855
216001.000			-9.273			-1.855
216100.000			-9.273			-1.855
216200.000			-9.273			-1.855
216301.000			-9.272			-1.854
216400.000			-9.272			-1.854
216500.000			-9.272			-1.854
216601.000			-9.272			-1.854
216701.000			-9.272			-1.854
216801.000			-9.271			-1.854
216901.000			-9.270			-1.854
217000.000			-9.270			-1.854
217100.000			-9.270			-1.854
217200.000			-9.271			-1.854
217300.000			-9.272			-1.854
217401.000			-9.271			-1.854
217500.000			-9.270			-1.854
217601.000			-9.271			-1.854
217702.000			-9.271			-1.854
217801.000			-9.271			-1.854
217900.000			-9.271			-1.854
218001.000			-9.270			-1.854
218100.000			-9.270			-1.854
218200.000			-9.271			-1.854
218301.000			-9.270			-1.854
218400.000			-9.270			-1.854
218500.000			-9.270			-1.854
218602.000			-9.270			-1.854
218701.000			-9.269			-1.854
218800.000			-9.269			-1.854
218901.000			-9.270			-1.854
219000.000			-9.269			-1.854
219100.000			-9.269			-1.854
219201.000			-9.269			-1.854
219300.000			-9.269			-1.854
219400.000			-9.270			-1.854
219502.000			-9.269			-1.854
219601.000			-9.269			-1.854
219701.000			-9.268			-1.854
219801.000			-9.267			-1.853
219900.000			-9.268			-1.854
220000.000			-9.268			-1.854
220101.000			-9.268			-1.854
220200.000			-9.268			-1.854
220300.000			-9.268			-1.854
220400.000			-9.267			-1.853
220501.000			-9.267			-1.853
220602.000			-9.268			-1.854
220700.000			-9.268			-1.854
220800.000			-9.267			-1.853
220901.000			-9.267			-1.853
221000.000			-9.266			-1.853
221100.000			-9.267			-1.853
221201.000			-9.267			-1.853
221301.000			-9.267			-1.853
221401.000			-9.267			-1.853
221502.000			-9.267			-1.853
221600.000			-9.266			-1.853
221700.000			-9.266			-1.853
221801.000			-9.265			-1.853
221900.000			-9.266			-1.853
222000.000			-9.267			-1.853
222101.000			-9.267			-1.853
222200.000			-9.266			-1.853
222301.000			-9.265			-1.853
222402.000			-9.265			-1.853
222500.000			-9.266			-1.853
222600.000			-9.266			-1.853
222701.000			-9.266			-1.853
222800.000			-9.266			-1.853
222900.000			-9.266			-1.853
223001.000			-9.266			-1.853
223100.000			-9.266			-1.853
223201.000			-9.263			-1.853
223302.000			-9.264			-1.853
223400.000			-9.265			-1.853
223500.000			-9.265			-1.853
223600.000			-9.265			-1.853
223700.000			-9.265			-1.853
223801.000			-9.264			-1.853
223900.000			-9.264			-1.853
224000.000			-9.264			-1.853
224102.000			-9.263			-1.853
224201.000			-9.263			-1.853
224300.000			-9.263			-1.853
224401.000			-9.263			-1.853
224500.000			-9.263			-1.853
224600.000			-9.263			-1.853
224701.000			-9.262			-1.852
224800.000			-9.262			-1.852
224900.000			-9.262			-1.852
225002.000			-9.263			-1.853
225101.000			-9.263			-1.853
225201.000			-9.262			-1.852
225301.000			-9.262			-1.852
225400.000			-9.263			-1.853
225500.000			-9.262			-1.852
225601.000			-9.262			-1.852
225700.000			-9.262			-1.852
225800.000			-9.260			-1.852
225902.000			-9.260			-1.852
226001.000			-9.260			-1.852
226101.000			-9.261			-1.852
226201.000			-9.262			-1.852
226300.000			-9.262			-1.852
226400.000			-9.261			-1.852
226501.000			-9.261			-1.852
226600.000			-9.261			-1.852
226700.000			-9.261			-1.852
226800.000			-9.261			-1.852
226901.000			-9.261			-1.852
227002.000			-9.260			-1.852
227100.000			-9.260			-1.852
227200.000			-9.260			-1.852
227301.000			-9.260			-1.852
227400.000			-9.260			-1.852
227500.000			-9.260			-1.852
227601.000			-9.260			-1.852
227700.000			-9.260			-1.852
227801.000			-9.259			-1.852
227902.000			-9.260			-1.852
228001.000			-9.260			-1.852
228100.000			-9.259			-1.852
228201.000			-9.260			-1.852
228300.000			-9.258			-1.852
228400.000			-9.258			-1.852
228501.000			-9.259			-1.852
228600.000			-9.260			-1.852
228701.000			-9.261			-1.852
228802.000			-9.260			-1.852
228901.000			-9.259			-1.852
229000.000			-9.259			-1.852
229101.000			-9.258			-1.852
229200.000			-9.259			-1.852
229300.000			-9.259			-1.852
229401.000			-9.258			-1.852
229500.000			-9.258			-1.852
229600.000			-9.258			-1.852
229702.000			-9.258			-1.852
229801.000			-9.258			-1.852
229900.000			-9.257			-1.851
230000.000			-9.257			-1.851
230100.000			-9.257			-1.851
230201.000			-9.257			-1.851
230300.000			-9.257			-1.851
230400.000			-9.257			-1.851
230501.000			-9.257			-1.851
230601.000			-9.256			-1.851
230701.000			-9.257			-1.851
230802.000			-9.257			-1.851
230900.000			-9.257			-1.851
231000.000			-9.257			-1.851
231101.000			-9.257			-1.851
231200.000			-9.257			-1.851
231300.000			-9.256			-1.851
231401.000			-9.255			-1.851
231500.000			-9.256			-1.851
231601.000			-9.257			-1.851
231702.000			-9.257			-1.851
231800.000			-9.256			-1.851
231900.000			-9.256			-1.851
232001.000			-9.256			-1.851
232100.000			-9.256			-1.851
232200.000			-9.257			-1.851
232301.000			-9.256			-1.851
232400.000			-9.256			-1.851
232501.000			-9.256			-1.851
232602.000			-9.256			-1.851
232700.000			-9.255			-1.851
232800.000			-9.255			-1.851
232901.000			-9.256			-1.851
233000.000			-9.255			-1.851
233100.000			-9.255			-1.851
233200.000			-9.254			-1.851
233300.000			-9.255			-1.851
233402.000			-9.254			-1.851
233501.000			-9.255			-1.851
233601.000			-9.255			-1.851
233701.000			-9.255			-1.851
233800.000			-9.255			-1.851
233900.000			-9.254			-1.851
234001.000			-9.254			-1.851
234100.000			-9.254			-1.851
234200.000			-9.254			-1.851
234302.000			-9.254			-1.851
234401.000			-9.254			-1.851
234501.000			-9.253			-1.851
234601.000			-9.253			-1.851
234700.000			-9.254			-1.851
234800.000			-9.253			-1.851
234901.000			-9.254			-1.851
235000.000			-9.253			-1.851
235100.000			-9.253			-1.851
235201.000			-9.254			-1.851
235301.000			-9.254			-1.851
235401.000			-9.254			-1.851
235501.000			-9.253			-1.851
235600.000			-9.253			-1.851
235700.000			-9.253			-1.851
235801.000			-9.252			-1.850
235900.000			-9.252			-1.850
236000.000			-9.252			-1.850
236101.000			-9.252			-1.850
236201.000			-9.253			-1.851
236302.000			-9.253			-1.851
236400.000			-9.252			-1.850
236500.000			-9.252			-1.850
236601.000			-9.252			-1.850
236700.000			-9.252			-1.850
236800.000			-9.252			-1.850
236901.000			-9.252			-1.850
237000.000			-9.252			-1.850
237101.000			-9.252			-1.850
237202.000			-9.251			-1.850
237301.000			-9.251			-1.850
237400.000			-9.252			-1.850
237501.000			-9.251			-1.850
237600.000			-9.252			-1.850
237700.000			-9.252			-1.850
237801.000			-9.251			-1.850
237900.000			-9.251			-1.850
238000.000			-9.250			-1.850
238102.000			-9.251			-1.850
238201.000			-9.251			-1.850
238300.000			-9.250			-1.850
238401.000			-9.250			-1.850
238500.000			-9.250			-1.850
238600.000			-9.250			-1.850
238701.000			-9.251			-1.850
238800.000			-9.251			-1.850
238900.000			-9.250			-1.850
239002.000			-9.250			-1.850
239101.000			-9.250			-1.850
239200.000			-9.250			-1.850
239301.000			-9.250			-1.850
239400.000			-9.249			-1.850
239500.000			-9.249			-1.850
239600.000			-9.250			-1.850
239700.000			-9.249			-1.850
239801.000			-9.248			-1.850
239900.000			-9.248			-1.850
240001.000			-9.250			-1.850
240102.000			-9.250			-1.850
240200.000			-9.250			-1.850
240300.000			-9.248			-1.850
240401.000			-9.248			-1.850
240500.000			-9.249			-1.850
240600.000			-9.248			-1.850
240701.000			-9.248			-1.850
240800.000			-9.248			-1.850
240901.000			-9.248			-1.850
241002.000			-9.248			-1.850
241100.000			-9.248			-1.850
241200.000			-9.248			-1.850
241301.000			-9.248			-1.850
241400.000			-9.247			-1.849
241500.000			-9.248			-1.850
241601.000			-9.249			-1.850
241700.000			-9.248			-1.850
241801.000			-9.248			-1.850
241902.000			-9.246			-1.849
242001.000			-9.247			-1.849
242100.000			-9.247			-1.849
242201.000			-9.247			-1.849
242300.000			-9.247			-1.849
242400.000			-9.248			-1.850
242501.000			-9.247			-1.849
242600.000			-9.246			-1.849
242700.000			-9.247			-1.849
242802.000			-9.247			-1.849
242901.000			-9.246			-1.849
243001.000			-9.246			-1.849
243100.000			-9.246			-1.849
243200.000			-9.247			-1.849
243301.000			-9.246			-1.849
243400.000			-9.246			-1.849
243500.000			-9.245			-1.849
243601.000			-9.245			-1.849
243701.000			-9.246			-1.849
243801.000			-9.246			-1.849
243902.000			-9.245			-1.849
244000.000			-9.245			-1.849
244100.000			-9.245			-1.849
244201.000			-9.245			-1.849
244300.000			-9.245			-1.849
244400.000			-9.245			-1.849
244501.000			-9.245			-1.849
244601.000			-9.245			-1.849
244701.000			-9.245			-1.849
244802.000			-9.245			-1.849
244900.000			-9.245			-1.849
245000.000			-9.244			-1.849
245101.000			-9.245			-1.849
245200.000			-9.244			-1.849
245300.000			-9.243			-1.849
245401.000			-9.244			-1.849
245500.000			-9.244			-1.849
245601.000			-9.244			-1.849
245702.000			-9.244			-1.849
245800.000			-9.243			-1.849
245900.000			-9.243			-1.849
246000.000			-9.243			-1.849
246100.000			-9.242			-1.848
246201.000			-9.243			-1.849
246300.000			-9.243			-1.849
246400.000			-9.243			-1.849
246502.000			-9.243			-1.849
246601.000			-9.243			-1.849
246701.000			-9.243			-1.849
246801.000			-9.244			-1.849
246900.000			-9.242			-1.848
247000.000			-9.242			-1.848
247101.000			-9.241			-1.848
247200.000			-9.242			-1.848
247300.000			-9.243			-1.849
247401.000			-9.243			-1.849
247501.000			-9.243			-1.849
247601.000			-9.242			-1.848
247701.000			-9.241			-1.848
247800.000			-9.241			-1.848
247900.000			-9.240			-1.848
248001.000			-9.240			-1.848
248100.000			-9.241			-1.848
248200.000			-9.241			-1.848
248301.000			-9.241			-1.848
248401.000			-9.242			-1.848
248501.000			-9.241			-1.848
248601.000			-9.241			-1.848
248700.000			-9.241			-1.848
248800.000			-9.240			-1.848
248901.000			-9.240			-1.848
249000.000			-9.241			-1.848
249100.000			-9.242			-1.848
249200.000			-9.239			-1.848
249301.000			-9.240			-1.848
249402.000			-9.240			-1.848
249501.000			-9.240			-1.848
249600.000			-9.240			-1.848
249701.000			-9.239			-1.848
249800.000			-9.240			-1.848
249900.000			-9.240			-1.848
250001.000			-9.239			-1.848
250100.000			-9.239			-1.848
250200.000			-9.239			-1.848
250302.000			-9.239			-1.848
250401.000			-9.239			-1.848
250500.000			-9.240			-1.848
250601.000			-9.239			-1.848
250700.000			-9.238			-1.848
250800.000			-9.238			-1.848
250901.000			-9.239			-1.848
251000.000			-9.238			-1.848
251100.000			-9.239			-1.848
251202.000			-9.239			-1.848
251301.000			-9.238			-1.848
251400.000			-9.238			-1.848
251501.000			-9.237			-1.847
251600.000			-9.237			-1.847
251700.000			-9.238			-1.848
251801.000			-9.239			-1.848
251900.000			-9.239			-1.848
252000.000			-9.237			-1.847
252102.000			-9.238			-1.848
252201.000			-9.238			-1.848
252300.000			-9.238			-1.848
252400.000			-9.237			-1.847
252500.000			-9.237			-1.847
252601.000			-9.237			-1.847
252700.000			-9.236			-1.847
252800.000			-9.236			-1.847
252901.000			-9.237			-1.847
253001.000			-9.237			-1.847
253101.000			-9.237			-1.847
253202.000			-9.237			-1.847
253300.000			-9.237			-1.847
253400.000			-9.236			-1.847
253501.000			-9.236			-1.847
253600.000			-9.237			-1.847
253700.000			-9.236			-1.847
253801.000			-9.235			-1.847
253901.000			-9.235			-1.847
254001.000			-9.236			-1.847
254102.000			-9.237			-1.847
254200.000			-9.236			-1.847
254300.000			-9.235			-1.847
254401.000			-9.235			-1.847
254500.000			-9.237			-1.847
254600.000			-9.236			-1.847
254701.000			-9.235			-1.847
254800.000			-9.235			-1.847
254901.000			-9.237			-1.847
255002.000			-9.235			-1.847
255100.000			-9.236			-1.847
255200.000			-9.235			-1.847
255301.000			-9.234			-1.847
255400.000			-9.233			-1.847
255500.000			-9.234			-1.847
255600.000			-9.235			-1.847
255700.000			-9.235			-1.847
255802.000			-9.235			-1.847
255901.000			-9.235			-1.847
256001.000			-9.235			-1.847
256101.000			-9.235			-1.847
256200.000			-9.235			-1.847
256300.000			-9.234			-1.847
256401.000			-9.234			-1.847
256500.000			-9.233			-1.847
256600.000			-9.234			-1.847
256702.000			-9.234			-1.847
256801.000			-9.234			-1.847
256901.000			-9.234			-1.847
257001.000			-9.235			-1.847
257100.000			-9.233			-1.847
257200.000			-9.233			-1.847
257301.000			-9.232			-1.846
257400.000			-9.233			-1.847
257500.000			-9.233			-1.847
257601.000			-9.233			-1.847
257701.000			-9.233			-1.847
257801.000			-9.233			-1.847
257901.000			-9.233			-1.847
258000.000			-9.233			-1.847
258100.000			-9.233			-1.847
258201.000			-9.232			-1.846
258300.000			-9.232			-1.846
258400.000			-9.232			-1.846
258501.000			-9.231			-1.846
258601.000			-9.232			-1.846
258702.000			-9.230			-1.846
258801.000			-9.231			-1.846
258900.000			-9.232			-1.846
259001.000			-9.232			-1.846
259100.000			-9.231			-1.846
259200.000			-9.231			-1.846
259301.000			-9.232			-1.846
259400.000			-9.231			-1.846
259501.000			-9.230			-1.846
259602.000			-9.231			-1.846
259701.000			-9.231			-1.846
259800.000			-9.230			-1.846
259901.000			-9.231			-1.846
260000.000			-9.231			-1.846
260100.000			-9.231			-1.846
260201.000			-9.229			-1.846
260300.000			-9.230			-1.846
260400.000			-9.230			-1.846
260502.000			-9.229			-1.846
260601.000			-9.230			-1.846
260700.000			-9.229			-1.846
260801.000			-9.230			-1.846
260900.000			-9.230			-1.846
261000.000			-9.230			-1.846
261101.000			-9.230			-1.846
261200.000			-9.230			-1.846
261300.000			-9.230			-1.846
261402.000			-9.229			-1.846
261501.000			-9.229			-1.846
261600.000			-9.229			-1.846
261701.000			-9.230			-1.846
261800.000			-9.230			-1.846
261900.000			-9.229			-1.846
262000.000			-9.229			-1.846
262100.000			-9.229			-1.846
262201.000			-9.229			-1.846
262301.000			-9.228			-1.846
262401.000			-9.228			-1.846
262501.000			-9.229			-1.846
262600.000			-9.229			-1.846
262700.000			-9.229			-1.846
262801.000			-9.229			-1.846
262900.000			-9.228			-1.846
263000.000			-9.228			-1.846
263101.000			-9.228			-1.846
263201.000			-9.229			-1.846
263301.000			-9.229			-1.846
263402.000			-9.228			-1.846
263500.000			-9.227			-1.845
263600.000			-9.226			-1.845
263701.000			-9.226			-1.845
263800.000			-9.227			-1.845
263900.000			-9.226			-1.845
264001.000			-9.227			-1.845
264100.000			-9.227			-1.845
264201.000			-9.227			-1.845
264302.000			-9.227			-1.845
264400.000			-9.227			-1.845
264500.000			-9.226			-1.845
264601.000			-9.226			-1.845
264700.000			-9.227			-1.845
264800.000			-9.225			-1.845
264901.000			-9.225			-1.845
265000.000			-9.227			-1.845
265102.000			-9.227			-1.845
265201.000			-9.225			-1.845
265301.000			-9.225			-1.845
265401.000			-9.226			-1.845
265500.000			-9.226			-1.845
265600.000			-9.226			-1.845
265701.000			-9.225			-1.845
265800.000			-9.224			-1.845
265900.000			-9.225			-1.845
266001.000			-9.224			-1.845
266101.000			-9.225			-1.845
266201.000			-9.225			-1.845
266301.000			-9.226			-1.845
266400.000			-9.225			-1.845
266500.000			-9.225			-1.845
266601.000			-9.224			-1.845
266700.000			-9.225			-1.845
266800.000			-9.224			-1.845
266901.000			-9.223			-1.845
267001.000			-9.223			-1.845
267101.000			-9.224			-1.845
267201.000			-9.223			-1.845
267300.000			-9.223			-1.845
267400.000			-9.223			-1.845
267501.000			-9.223			-1.845
267600.000			-9.224			-1.845
267700.000			-9.223			-1.845
267801.000			-9.223			-1.845
267901.000			-9.223			-1.845
268001.000			-9.223			-1.845
268101.000			-9.223			-1.845
268200.000			-9.223			-1.845
268300.000			-9.223			-1.845
268400.000			-9.222			-1.844
268500.000			-9.222			-1.844
268601.000			-9.222			-1.844
268700.000			-9.223			-1.845
268801.000			-9.222			-1.844
268902.000			-9.221			-1.844
269001.000			-9.221			-1.844
269100.000			-9.221			-1.844
269201.000			-9.221			-1.844
269300.000			-9.221			-1.844
269400.000			-9.222			-1.844
269501.000			-9.221			-1.844
269600.000			-9.221			-1.844
269700.000			-9.220			-1.844
269802.000			-9.221			-1.844
269901.000			-9.220			-1.844
270000.000			-9.220			-1.844
270101.000			-9.220			-1.844
270200.000			-9.221			-1.844
270300.000			-9.221			-1.844
270401.000			-9.220			-1.844
270500.000			-9.220			-1.844
270601.000			-9.220			-1.844
270702.000			-9.219			-1.844
270801.000			-9.219			-1.844
270900.000			-9.220			-1.844
271001.000			-9.220			-1.844
271100.000			-9.221			-1.844
271200.000			-9.219			-1.844
271301.000			-9.219			-1.844
271400.000			-9.219			-1.844
271502.000			-9.219			-1.844
271601.000			-9.220			-1.844
271701.000			-9.219			-1.844
271801.000			-9.219			-1.844
271900.000			-9.219			-1.844
272000.000			-9.219			-1.844
272101.000			-9.219			-1.844
272200.000			-9.218			-1.844
272300.000			-9.218			-1.844
272401.000			-9.219			-1.844
272501.000			-9.219			-1.844
272601.000			-9.219			-1.844
272701.000			-9.219			-1.844
272800.000			-9.218			-1.844
272900.000			-9.218			-1.844
273001.000			-9.218			-1.844
273100.000			-9.219			-1.844
273200.000			-9.219			-1.844
273301.000			-9.218			-1.844
273401.000			-9.218			-1.844
273501.000			-9.217			-1.843
273601.000			-9.217			-1.843
273700.000			-9.218			-1.844
273800.000			-9.218			-1.844
273901.000			-9.217			-1.843
274000.000			-9.217			-1.843
274100.000			-9.218			-1.844
274201.000			-9.218			-1.844
274301.000			-9.217			-1.843
274401.000			-9.217			-1.843
274501.000			-9.217			-1.843
274600.000			-9.217			-1.843
274700.000			-9.217			-1.843
274800.000			-9.217			-1.843
274900.000			-9.218			-1.844
275001.000			-9.217			-1.843
275100.000			-9.215			-1.843
275200.000			-9.216			-1.843
275302.000			-9.217			-1.843
275401.000			-9.216			-1.843
275500.000			-9.216			-1.843
275601.000			-9.216			-1.843
275700.000			-9.216			-1.843
275800.000			-9.216			-1.843
275901.000			-9.217			-1.843
276000.000			-9.217			-1.843
276100.000			-9.216			-1.843
276202.000			-9.216			-1.843
276301.000			-9.216			-1.843
276400.000			-9.216			-1.843
276501.000			-9.215			-1.843
276600.000			-9.216			-1.843
276700.000			-9.215			-1.843
276801.000			-9.215			-1.843
276900.000			-9.216			-1.843
277000.000			-9.216			-1.843
277102.000			-9.215			-1.843
277201.000			-9.216			-1.843
277301.000			-9.215			-1.843
277401.000			-9.215			-1.843
277500.000			-9.215			-1.843
277600.000			-9.215			-1.843
277701.000			-9.214			-1.843
277800.000			-9.215			-1.843
277900.000			-9.216			-1.843
278002.000			-9.215			-1.843
278101.000			-9.214			-1.843
278202.000			-9.214			-1.843
278300.000			-9.214			-1.843
278400.000			-9.214			-1.843
278501.000			-9.214			-1.843
278600.000			-9.215			-1.843
278700.000			-9.216			-1.843
278801.000			-9.214			-1.843
278900.000			-9.215			-1.843
279001.000			-9.215			-1.843
279102.000			-9.214			-1.843
279200.000			-9.214			-1.843
279300.000			-9.214			-1.843
279401.000			-9.215			-1.843
279500.000			-9.214			-1.843
279600.000			-9.214			-1.843
279701.000			-9.215			-1.843
279800.000			-9.214			-1.843
279901.000			-9.214			-1.843
280002.000			-9.214			-1.843
280101.000			-9.214			-1.843
280200.000			-9.214			-1.843
280301.000			-9.215			-1.843
280400.000			-9.214			-1.843
280500.000			-9.214			-1.843
280601.000			-9.214			-1.843
280700.000			-9.214			-1.843
280801.000			-9.214			-1.843
280902.000			-9.213			-1.843
281001.000			-9.214			-1.843
281100.000			-9.213			-1.843
281200.000			-9.213			-1.843
281300.000			-9.213			-1.843
281401.000			-9.213			-1.843
281500.000			-9.212			-1.842
281600.000			-9.213			-1.843
281702.000			-9.214			-1.843
281801.000			-9.212			-1.842
281901.000			-9.212			-1.842
282001.000			-9.212			-1.842
282100.000			-9.213			-1.843
282200.000			-9.213			-1.843
282301.000			-9.213			-1.843
282400.000			-9.213			-1.843
282500.000			-9.212			-1.842
282602.000			-9.212			-1.842
282701.000			-9.213			-1.843
282801.000			-9.212			-1.842
282901.000			-9.212			-1.842
283000.000			-9.212			-1.842
283100.000			-9.212			-1.842
283201.000			-9.212			-1.842
283300.000			-9.213			-1.843
283400.000			-9.213			-1.843
283502.000			-9.212			-1.842
283601.000			-9.212			-1.842
283701.000			-9.212			-1.842
283801.000			-9.211			-1.842
283900.000			-9.210			-1.842
284000.000			-9.211			-1.842
284101.000			-9.211			-1.842
284200.000			-9.211			-1.842
284300.000			-9.212			-1.842
284402.000			-9.211			-1.842
284501.000			-9.210			-1.842
284602.000			-9.210			-1.842
284700.000			-9.211			-1.842
284800.000			-9.210			-1.842
284901.000			-9.211			-1.842
285000.000			-9.210			-1.842
285100.000			-9.210			-1.842
285201.000			-9.209			-1.842
285301.000			-9.210			-1.842
285401.000			-9.211			-1.842
285502.000			-9.209			-1.842
285600.000			-9.209			-1.842
285700.000			-9.209			-1.842
285801.000			-9.210			-1.842
285900.000			-9.210			-1.842
286000.000			-9.209			-1.842
286101.000			-9.209			-1.842
286200.000			-9.210			-1.842
286301.000			-9.209			-1.842
286402.000			-9.209			-1.842
286501.000			-9.209			-1.842
286600.000			-9.209			-1.842
286701.000			-9.209			-1.842
286800.000			-9.210			-1.842
286900.000			-9.209			-1.842
287001.000			-9.209			-1.842
287100.000			-9.210			-1.842
287200.000			-9.209			-1.842
287302.000			-9.209			-1.842
287401.000			-9.207			-1.841
287500.000			-9.207			-1.841
287600.000			-9.208			-1.842
287700.000			-9.208			-1.842
287801.000			-9.207			-1.841
287900.000			-9.207			-1.841
288000.000			-9.207			-1.841
288101.000			-9.208			-1.842
288201.000			-9.208			-1.842
288301.000			-9.208			-1.842
288402.000			-9.207			-1.841
288500.000			-9.207			-1.841
288600.000			-9.207			-1.841
288701.000			-9.207			-1.841
288800.000			-9.208			-1.842
288900.000			-9.208			-1.842
289001.000			-9.207			-1.841
289100.000			-9.208			-1.842
289201.000			-9.207			-1.841
289302.000			-9.206			-1.841
289400.000			-9.207			-1.841
289500.000			-9.207			-1.841
289601.000			-9.207			-1.841
289700.000			-9.207			-1.841
289800.000			-9.206			-1.841
289901.000			-9.207			-1.841
290000.000			-9.207			-1.841
290101.000			-9.206			-1.841
290202.000			-9.207			-1.841
290301.000			-9.206			-1.841
290400.000			-9.206			-1.841
290501.000			-9.206			-1.841
290600.000			-9.206			-1.841
290700.000			-9.206			-1.841
290800.000			-9.207			-1.841
290900.000			-9.207			-1.841
291002.000			-9.206			-1.841
291101.000			-9.206			-1.841
291201.000			-9.206			-1.841
291301.000			-9.205			-1.841
291400.000			-9.206			-1.841
291500.000			-9.205			-1.841
291601.000			-9.205			-1.841
291700.000			-9.205			-1.841
291800.000			-9.205			-1.841
291902.000			-9.205			-1.841
292001.000			-9.204			-1.841
292101.000			-9.204			-1.841
292201.000			-9.205			-1.841
292300.000			-9.204			-1.841
292400.000			-9.204			-1.841
292501.000			-9.203			-1.841
292600.000			-9.203			-1.841
292700.000			-9.204			-1.841
292802.000			-9.203			-1.841
292901.000			-9.204			-1.841
293001.000			-9.203			-1.841
293101.000			-9.204			-1.841
293200.000			-9.203			-1.841
293300.000			-9.203			-1.841
293401.000			-9.204			-1.841
293500.000			-9.203			-1.841
293600.000			-9.203			-1.841
293702.000			-9.203			-1.841
293801.000			-9.203			-1.841
293902.000			-9.203			-1.841
294000.000			-9.203			-1.841
294100.000			-9.203			-1.841
294201.000			-9.203			-1.841
294300.000			-9.202			-1.840
294400.000			-9.203			-1.841
294501.000			-9.203			-1.841
294600.000			-9.203			-1.841
294701.000			-9.203			-1.841
294802.000			-9.204			-1.841
294900.000			-9.202			-1.840
295000.000			-9.202			-1.840
295101.000			-9.202			-1.840
295200.000			-9.202			-1.840
295300.000			-9.202			-1.840
295401.000			-9.202			-1.840
295500.000			-9.201			-1.840
295601.000			-9.202			-1.840
295702.000			-9.201			-1.840
295800.000			-9.201			-1.840
295900.000			-9.201			-1.840
296001.000			-9.201			-1.840
296100.000			-9.200			-1.840
296200.000			-9.200			-1.840
296301.000			-9.201			-1.840
296400.000			-9.201			-1.840
296501.000			-9.201			-1.840
296602.000			-9.202			-1.840
296701.000			-9.202			-1.840
296800.000			-9.201			-1.840
296901.000			-9.200			-1.840
297000.000			-9.201			-1.840
297100.000			-9.200			-1.840
297200.000			-9.200			-1.840
297300.000			-9.200			-1.840
297402.000			-9.200			-1.840
297501.000			-9.200			-1.840
297601.000			-9.201			-1.840
297701.000			-9.199			-1.840
297800.000			-9.200			-1.840
297900.000			-9.201			-1.840
298001.000			-9.201			-1.840
298100.000			-9.200			-1.840
298200.000			-9.200			-1.840
298301.000			-9.200			-1.840
298401.000			-9.200			-1.840
298501.000			-9.199			-1.840
298602.000			-9.199			-1.840
298700.000			-9.200			-1.840
298800.000			-9.200			-1.840
298901.000			-9.199			-1.840
299000.000			-9.198			-1.840
299100.000			-9.199			-1.840
299201.000			-9.200			-1.840
299300.000			-9.199			-1.840
299401.000			-9.199			-1.840
299502.000			-9.198			-1.840
299601.000			-9.198			-1.840
299700.000			-9.199			-1.840
299801.000			-9.200			-1.840
299900.000			-9.198			-1.840
