# Acquired on 20/12/2023 17:06:56 
# SPIDER: Creep_7mm_07714532B-2
# CREEP MEASUREMENT

# time [ms]		force [N]		stiffness [N/mm]
0.000			-26.568			-3.795
101.000			-29.540			-4.220
200.000			-29.776			-4.254
300.000			-29.646			-4.235
402.000			-29.495			-4.214
501.000			-29.376			-4.197
601.000			-29.277			-4.182
700.000			-29.192			-4.170
800.000			-29.047			-4.150
901.000			-28.987			-4.141
1000.000			-28.933			-4.133
1101.000			-28.881			-4.126
1202.000			-28.834			-4.119
1300.000			-28.789			-4.113
1400.000			-28.748			-4.107
1501.000			-28.674			-4.096
1600.000			-28.640			-4.091
1700.000			-28.605			-4.086
1801.000			-28.574			-4.082
1901.000			-28.545			-4.078
2001.000			-28.516			-4.074
2101.000			-28.489			-4.070
2200.000			-28.463			-4.066
2300.000			-28.414			-4.059
2401.000			-28.391			-4.056
2500.000			-28.369			-4.053
2600.000			-28.347			-4.050
2702.000			-28.327			-4.047
2801.000			-28.307			-4.044
2900.000			-28.287			-4.041
3001.000			-28.250			-4.036
3100.000			-28.232			-4.033
3200.000			-28.215			-4.031
3301.000			-28.199			-4.028
3401.000			-28.181			-4.026
3502.000			-28.165			-4.024
3600.000			-28.149			-4.021
3700.000			-28.120			-4.017
3801.000			-28.104			-4.015
3900.000			-28.090			-4.013
4000.000			-28.077			-4.011
4101.000			-28.064			-4.009
4201.000			-28.051			-4.007
4301.000			-28.038			-4.005
4401.000			-28.012			-4.002
4500.000			-28.001			-4.000
4600.000			-27.989			-3.998
4701.000			-27.976			-3.997
4800.000			-27.964			-3.995
4900.000			-27.954			-3.993
5002.000			-27.942			-3.992
5101.000			-27.930			-3.990
5200.000			-27.910			-3.987
5301.000			-27.900			-3.986
5400.000			-27.890			-3.984
5500.000			-27.879			-3.983
5601.000			-27.869			-3.981
5700.000			-27.860			-3.980
5801.000			-27.849			-3.978
5902.000			-27.832			-3.976
6000.000			-27.822			-3.975
6100.000			-27.813			-3.973
6201.000			-27.803			-3.972
6300.000			-27.795			-3.971
6400.000			-27.787			-3.970
6501.000			-27.779			-3.968
6601.000			-27.761			-3.966
6702.000			-27.753			-3.965
6800.000			-27.744			-3.963
6900.000			-27.736			-3.962
7001.000			-27.728			-3.961
7100.000			-27.720			-3.960
7200.000			-27.713			-3.959
7301.000			-27.706			-3.958
7401.000			-27.690			-3.956
7501.000			-27.684			-3.955
7601.000			-27.676			-3.954
7700.000			-27.669			-3.953
7800.000			-27.661			-3.952
7901.000			-27.655			-3.951
8000.000			-27.649			-3.950
8100.000			-27.635			-3.948
8202.000			-27.628			-3.947
8301.000			-27.621			-3.946
8400.000			-27.614			-3.945
8501.000			-27.608			-3.944
8600.000			-27.602			-3.943
8700.000			-27.596			-3.942
8801.000			-27.582			-3.940
8901.000			-27.576			-3.939
9001.000			-27.570			-3.939
9101.000			-27.564			-3.938
9200.000			-27.559			-3.937
9300.000			-27.553			-3.936
9401.000			-27.546			-3.935
9500.000			-27.540			-3.934
9600.000			-27.530			-3.933
9702.000			-27.524			-3.932
9801.000			-27.519			-3.931
9900.000			-27.514			-3.931
10000.000			-27.508			-3.930
10100.000			-27.502			-3.929
10201.000			-27.497			-3.928
10300.000			-27.486			-3.927
10400.000			-27.481			-3.926
10502.000			-27.475			-3.925
10601.000			-27.471			-3.924
10700.000			-27.465			-3.924
10801.000			-27.460			-3.923
10900.000			-27.454			-3.922
11000.000			-27.445			-3.921
11101.000			-27.440			-3.920
11200.000			-27.436			-3.919
11301.000			-27.431			-3.919
11402.000			-27.426			-3.918
11500.000			-27.421			-3.917
11600.000			-27.416			-3.917
11701.000			-27.411			-3.916
11800.000			-27.402			-3.915
11900.000			-27.397			-3.914
12001.000			-27.393			-3.913
12101.000			-27.390			-3.913
12201.000			-27.386			-3.912
12301.000			-27.380			-3.911
12400.000			-27.375			-3.911
12500.000			-27.366			-3.909
12601.000			-27.363			-3.909
12700.000			-27.358			-3.908
12800.000			-27.353			-3.908
12902.000			-27.349			-3.907
13001.000			-27.345			-3.906
13100.000			-27.342			-3.906
13200.000			-27.334			-3.905
13300.000			-27.329			-3.904
13401.000			-27.325			-3.904
13500.000			-27.321			-3.903
13600.000			-27.317			-3.902
13702.000			-27.312			-3.902
13801.000			-27.308			-3.901
13900.000			-27.304			-3.901
14001.000			-27.297			-3.900
14100.000			-27.293			-3.899
14200.000			-27.289			-3.898
14301.000			-27.285			-3.898
14400.000			-27.281			-3.897
14501.000			-27.278			-3.897
14602.000			-27.274			-3.896
14700.000			-27.268			-3.895
14800.000			-27.263			-3.895
14901.000			-27.260			-3.894
15000.000			-27.257			-3.894
15100.000			-27.253			-3.893
15201.000			-27.249			-3.893
15301.000			-27.245			-3.892
15401.000			-27.239			-3.891
15501.000			-27.234			-3.891
15600.000			-27.231			-3.890
15700.000			-27.227			-3.890
15801.000			-27.222			-3.889
15900.000			-27.219			-3.888
16000.000			-27.218			-3.888
16102.000			-27.214			-3.888
16201.000			-27.207			-3.887
16300.000			-27.202			-3.886
16400.000			-27.199			-3.886
16500.000			-27.197			-3.885
16601.000			-27.195			-3.885
16700.000			-27.190			-3.884
16800.000			-27.187			-3.884
16902.000			-27.180			-3.883
17001.000			-27.178			-3.883
17100.000			-27.174			-3.882
17201.000			-27.170			-3.881
17300.000			-27.168			-3.881
17400.000			-27.164			-3.881
17501.000			-27.161			-3.880
17600.000			-27.155			-3.879
17701.000			-27.153			-3.879
17802.000			-27.150			-3.879
17900.000			-27.147			-3.878
18000.000			-27.143			-3.878
18101.000			-27.140			-3.877
18200.000			-27.137			-3.877
18300.000			-27.135			-3.876
18401.000			-27.129			-3.876
18501.000			-27.125			-3.875
18601.000			-27.123			-3.875
18701.000			-27.121			-3.874
18800.000			-27.117			-3.874
18900.000			-27.115			-3.874
19001.000			-27.112			-3.873
19100.000			-27.105			-3.872
19200.000			-27.102			-3.872
19302.000			-27.100			-3.871
19401.000			-27.097			-3.871
19500.000			-27.095			-3.871
19600.000			-27.091			-3.870
19700.000			-27.089			-3.870
19801.000			-27.083			-3.869
19900.000			-27.080			-3.869
20000.000			-27.077			-3.868
20102.000			-27.074			-3.868
20201.000			-27.073			-3.868
20300.000			-27.070			-3.867
20401.000			-27.067			-3.867
20500.000			-27.064			-3.866
20600.000			-27.059			-3.866
20701.000			-27.057			-3.865
20800.000			-27.054			-3.865
20901.000			-27.050			-3.864
21002.000			-27.048			-3.864
21100.000			-27.047			-3.864
21200.000			-27.043			-3.863
21301.000			-27.039			-3.863
21400.000			-27.036			-3.862
21500.000			-27.033			-3.862
21602.000			-27.030			-3.861
21701.000			-27.027			-3.861
21800.000			-27.026			-3.861
21901.000			-27.024			-3.861
22000.000			-27.018			-3.860
22100.000			-27.016			-3.859
22201.000			-27.014			-3.859
22300.000			-27.012			-3.859
22401.000			-27.007			-3.858
22502.000			-27.006			-3.858
22600.000			-27.004			-3.858
22700.000			-27.000			-3.857
22800.000			-26.997			-3.857
22900.000			-26.994			-3.856
23001.000			-26.991			-3.856
23100.000			-26.989			-3.856
23201.000			-26.988			-3.855
23302.000			-26.986			-3.855
23401.000			-26.982			-3.855
23500.000			-26.977			-3.854
23601.000			-26.975			-3.854
23700.000			-26.974			-3.853
23800.000			-26.971			-3.853
23901.000			-26.968			-3.853
24000.000			-26.967			-3.852
24101.000			-26.964			-3.852
24202.000			-26.960			-3.851
24300.000			-26.958			-3.851
24400.000			-26.956			-3.851
24501.000			-26.953			-3.850
24600.000			-26.951			-3.850
24700.000			-26.949			-3.850
24801.000			-26.946			-3.849
24901.000			-26.942			-3.849
25001.000			-26.941			-3.849
25101.000			-26.937			-3.848
25200.000			-26.935			-3.848
25300.000			-26.933			-3.848
25401.000			-26.931			-3.847
25500.000			-26.928			-3.847
25600.000			-26.928			-3.847
25702.000			-26.924			-3.846
25801.000			-26.922			-3.846
25900.000			-26.919			-3.846
26000.000			-26.917			-3.845
26100.000			-26.916			-3.845
26201.000			-26.913			-3.845
26300.000			-26.910			-3.844
26400.000			-26.906			-3.844
26502.000			-26.904			-3.843
26601.000			-26.903			-3.843
26700.000			-26.901			-3.843
26801.000			-26.899			-3.843
26900.000			-26.897			-3.842
27000.000			-26.894			-3.842
27101.000			-26.891			-3.842
27200.000			-26.888			-3.841
27301.000			-26.886			-3.841
27402.000			-26.885			-3.841
27500.000			-26.882			-3.840
27600.000			-26.880			-3.840
27701.000			-26.878			-3.840
27800.000			-26.876			-3.839
27900.000			-26.872			-3.839
28001.000			-26.871			-3.839
28100.000			-26.869			-3.838
28201.000			-26.867			-3.838
28302.000			-26.865			-3.838
28400.000			-26.863			-3.838
28500.000			-26.861			-3.837
28601.000			-26.856			-3.837
28700.000			-26.855			-3.836
28800.000			-26.854			-3.836
28901.000			-26.852			-3.836
29001.000			-26.851			-3.836
29102.000			-26.848			-3.835
29200.000			-26.846			-3.835
29300.000			-26.845			-3.835
29401.000			-26.840			-3.834
29500.000			-26.839			-3.834
29600.000			-26.837			-3.834
29701.000			-26.835			-3.834
29801.000			-26.831			-3.833
29901.000			-26.830			-3.833
30002.000			-26.830			-3.833
30100.000			-26.826			-3.832
30200.000			-26.825			-3.832
30301.000			-26.822			-3.832
30400.000			-26.821			-3.832
30500.000			-26.819			-3.831
30601.000			-26.817			-3.831
30701.000			-26.815			-3.831
30801.000			-26.812			-3.830
30901.000			-26.811			-3.830
31000.000			-26.808			-3.830
31100.000			-26.806			-3.829
31201.000			-26.805			-3.829
31300.000			-26.803			-3.829
31400.000			-26.801			-3.829
31502.000			-26.797			-3.828
31601.000			-26.795			-3.828
31700.000			-26.793			-3.828
31801.000			-26.793			-3.828
31900.000			-26.792			-3.827
32000.000			-26.789			-3.827
32101.000			-26.787			-3.827
32200.000			-26.786			-3.827
32302.000			-26.783			-3.826
32401.000			-26.781			-3.826
32500.000			-26.779			-3.826
32601.000			-26.778			-3.825
32700.000			-26.776			-3.825
32800.000			-26.775			-3.825
32901.000			-26.773			-3.825
33000.000			-26.769			-3.824
33101.000			-26.767			-3.824
33202.000			-26.766			-3.824
33300.000			-26.765			-3.824
33400.000			-26.764			-3.823
33501.000			-26.762			-3.823
33600.000			-26.760			-3.823
33700.000			-26.759			-3.823
33801.000			-26.755			-3.822
33901.000			-26.753			-3.822
34001.000			-26.751			-3.822
34101.000			-26.750			-3.821
34200.000			-26.749			-3.821
34300.000			-26.747			-3.821
34401.000			-26.745			-3.821
34500.000			-26.742			-3.820
34600.000			-26.741			-3.820
34702.000			-26.739			-3.820
34801.000			-26.737			-3.820
34900.000			-26.736			-3.819
35001.000			-26.734			-3.819
35100.000			-26.733			-3.819
35200.000			-26.730			-3.819
35301.000			-26.729			-3.818
35400.000			-26.727			-3.818
35500.000			-26.726			-3.818
35602.000			-26.724			-3.818
35701.000			-26.723			-3.818
35801.000			-26.722			-3.817
35900.000			-26.721			-3.817
36000.000			-26.716			-3.817
36101.000			-26.715			-3.816
36200.000			-26.714			-3.816
36300.000			-26.712			-3.816
36402.000			-26.710			-3.816
36501.000			-26.708			-3.815
36600.000			-26.708			-3.815
36701.000			-26.705			-3.815
36800.000			-26.703			-3.815
36900.000			-26.702			-3.815
37001.000			-26.701			-3.814
37100.000			-26.699			-3.814
37201.000			-26.697			-3.814
37302.000			-26.695			-3.814
37400.000			-26.694			-3.813
37500.000			-26.692			-3.813
37601.000			-26.690			-3.813
37700.000			-26.689			-3.813
37800.000			-26.688			-3.813
37901.000			-26.686			-3.812
38001.000			-26.684			-3.812
38101.000			-26.682			-3.812
38201.000			-26.681			-3.812
38300.000			-26.679			-3.811
38400.000			-26.677			-3.811
38501.000			-26.675			-3.811
38600.000			-26.674			-3.811
38700.000			-26.672			-3.810
38800.000			-26.671			-3.810
38901.000			-26.669			-3.810
39002.000			-26.668			-3.810
39100.000			-26.667			-3.810
39200.000			-26.664			-3.809
39301.000			-26.663			-3.809
39400.000			-26.662			-3.809
39500.000			-26.660			-3.809
39601.000			-26.657			-3.808
39701.000			-26.656			-3.808
39801.000			-26.655			-3.808
39901.000			-26.654			-3.808
40000.000			-26.653			-3.808
40100.000			-26.652			-3.807
40201.000			-26.651			-3.807
40300.000			-26.647			-3.807
40400.000			-26.647			-3.807
40502.000			-26.645			-3.806
40601.000			-26.644			-3.806
40700.000			-26.642			-3.806
40801.000			-26.641			-3.806
40900.000			-26.640			-3.806
41000.000			-26.638			-3.805
41101.000			-26.635			-3.805
41200.000			-26.633			-3.805
41301.000			-26.633			-3.805
41402.000			-26.631			-3.804
41500.000			-26.629			-3.804
41600.000			-26.628			-3.804
41701.000			-26.626			-3.804
41800.000			-26.623			-3.803
41900.000			-26.623			-3.803
42000.000			-26.622			-3.803
42101.000			-26.621			-3.803
42202.000			-26.619			-3.803
42300.000			-26.618			-3.803
42400.000			-26.617			-3.802
42501.000			-26.615			-3.802
42600.000			-26.613			-3.802
42700.000			-26.612			-3.802
42801.000			-26.611			-3.802
42901.000			-26.610			-3.801
43001.000			-26.608			-3.801
43101.000			-26.606			-3.801
43200.000			-26.605			-3.801
43300.000			-26.602			-3.800
43401.000			-26.602			-3.800
43500.000			-26.600			-3.800
43600.000			-26.599			-3.800
43702.000			-26.598			-3.800
43801.000			-26.598			-3.800
43900.000			-26.597			-3.800
44001.000			-26.594			-3.799
44100.000			-26.592			-3.799
44200.000			-26.591			-3.799
44301.000			-26.590			-3.799
44400.000			-26.588			-3.798
44501.000			-26.588			-3.798
44602.000			-26.587			-3.798
44701.000			-26.582			-3.797
44800.000			-26.581			-3.797
44901.000			-26.581			-3.797
45000.000			-26.580			-3.797
45100.000			-26.578			-3.797
45200.000			-26.577			-3.797
45300.000			-26.576			-3.797
45402.000			-26.574			-3.796
45501.000			-26.572			-3.796
45600.000			-26.571			-3.796
45701.000			-26.570			-3.796
45800.000			-26.569			-3.796
45900.000			-26.569			-3.796
46001.000			-26.567			-3.795
46100.000			-26.566			-3.795
46201.000			-26.565			-3.795
46302.000			-26.562			-3.795
46400.000			-26.561			-3.794
46500.000			-26.559			-3.794
46601.000			-26.558			-3.794
46700.000			-26.558			-3.794
46800.000			-26.557			-3.794
46901.000			-26.553			-3.793
47001.000			-26.552			-3.793
47101.000			-26.552			-3.793
47201.000			-26.550			-3.793
47300.000			-26.549			-3.793
47400.000			-26.547			-3.792
47501.000			-26.547			-3.792
47600.000			-26.545			-3.792
47700.000			-26.545			-3.792
47801.000			-26.543			-3.792
47901.000			-26.541			-3.792
48001.000			-26.540			-3.791
48101.000			-26.539			-3.791
48200.000			-26.537			-3.791
48300.000			-26.536			-3.791
48400.000			-26.534			-3.791
48500.000			-26.534			-3.791
48601.000			-26.533			-3.790
48701.000			-26.532			-3.790
48801.000			-26.530			-3.790
48901.000			-26.529			-3.790
49000.000			-26.527			-3.790
49100.000			-26.525			-3.789
49201.000			-26.524			-3.789
49300.000			-26.523			-3.789
49400.000			-26.522			-3.789
49502.000			-26.520			-3.789
49601.000			-26.519			-3.788
49700.000			-26.519			-3.788
49801.000			-26.518			-3.788
49900.000			-26.516			-3.788
50000.000			-26.514			-3.788
50101.000			-26.512			-3.787
50200.000			-26.511			-3.787
50301.000			-26.511			-3.787
50402.000			-26.511			-3.787
50500.000			-26.510			-3.787
50600.000			-26.506			-3.787
50701.000			-26.506			-3.787
50800.000			-26.505			-3.786
50900.000			-26.504			-3.786
51001.000			-26.504			-3.786
51101.000			-26.502			-3.786
51201.000			-26.502			-3.786
51301.000			-26.498			-3.785
51400.000			-26.497			-3.785
51500.000			-26.496			-3.785
51600.000			-26.494			-3.785
51700.000			-26.493			-3.785
51801.000			-26.494			-3.785
51901.000			-26.492			-3.785
52001.000			-26.491			-3.784
52101.000			-26.490			-3.784
52200.000			-26.488			-3.784
52300.000			-26.487			-3.784
52401.000			-26.486			-3.784
52500.000			-26.485			-3.784
52600.000			-26.484			-3.783
52702.000			-26.483			-3.783
52801.000			-26.481			-3.783
52901.000			-26.479			-3.783
53001.000			-26.479			-3.783
53100.000			-26.479			-3.783
53200.000			-26.476			-3.782
53301.000			-26.475			-3.782
53400.000			-26.475			-3.782
53500.000			-26.473			-3.782
53602.000			-26.473			-3.782
53701.000			-26.472			-3.782
53800.000			-26.470			-3.781
53901.000			-26.468			-3.781
54000.000			-26.468			-3.781
54100.000			-26.466			-3.781
54201.000			-26.465			-3.781
54300.000			-26.463			-3.780
54401.000			-26.462			-3.780
54502.000			-26.461			-3.780
54600.000			-26.461			-3.780
54700.000			-26.460			-3.780
54800.000			-26.460			-3.780
54900.000			-26.458			-3.780
55001.000			-26.456			-3.779
55100.000			-26.455			-3.779
55201.000			-26.454			-3.779
55302.000			-26.453			-3.779
55400.000			-26.452			-3.779
55500.000			-26.451			-3.779
55601.000			-26.449			-3.778
55700.000			-26.448			-3.778
55800.000			-26.447			-3.778
55901.000			-26.446			-3.778
56001.000			-26.445			-3.778
56101.000			-26.444			-3.778
56201.000			-26.443			-3.778
56300.000			-26.442			-3.777
56400.000			-26.440			-3.777
56501.000			-26.439			-3.777
56600.000			-26.437			-3.777
56700.000			-26.435			-3.776
56802.000			-26.435			-3.776
56901.000			-26.435			-3.776
57000.000			-26.434			-3.776
57101.000			-26.435			-3.776
57200.000			-26.432			-3.776
57300.000			-26.431			-3.776
57401.000			-26.429			-3.776
57500.000			-26.428			-3.775
57601.000			-26.427			-3.775
57702.000			-26.427			-3.775
57800.000			-26.426			-3.775
57900.000			-26.424			-3.775
58000.000			-26.423			-3.775
58100.000			-26.422			-3.775
58201.000			-26.422			-3.775
58300.000			-26.421			-3.774
58401.000			-26.419			-3.774
58502.000			-26.419			-3.774
58600.000			-26.417			-3.774
58700.000			-26.416			-3.774
58801.000			-26.414			-3.773
58900.000			-26.412			-3.773
59000.000			-26.412			-3.773
59101.000			-26.411			-3.773
59201.000			-26.411			-3.773
59301.000			-26.411			-3.773
59401.000			-26.408			-3.773
59500.000			-26.408			-3.773
59600.000			-26.407			-3.772
59701.000			-26.405			-3.772
59800.000			-26.405			-3.772
59900.000			-26.404			-3.772
60002.000			-26.404			-3.772
60101.000			-26.402			-3.772
60200.000			-26.401			-3.772
60301.000			-26.400			-3.771
60400.000			-26.398			-3.771
60500.000			-26.397			-3.771
60601.000			-26.397			-3.771
60700.000			-26.395			-3.771
60801.000			-26.394			-3.771
60902.000			-26.394			-3.771
61000.000			-26.393			-3.770
61100.000			-26.391			-3.770
61200.000			-26.390			-3.770
61300.000			-26.390			-3.770
61401.000			-26.390			-3.770
61500.000			-26.389			-3.770
61601.000			-26.386			-3.769
61702.000			-26.384			-3.769
61800.000			-26.385			-3.769
61900.000			-26.384			-3.769
62001.000			-26.383			-3.769
62100.000			-26.383			-3.769
62200.000			-26.381			-3.769
62301.000			-26.379			-3.768
62401.000			-26.378			-3.768
62501.000			-26.378			-3.768
62601.000			-26.376			-3.768
62700.000			-26.375			-3.768
62800.000			-26.375			-3.768
62901.000			-26.375			-3.768
63000.000			-26.373			-3.768
63100.000			-26.372			-3.767
63202.000			-26.371			-3.767
63301.000			-26.371			-3.767
63400.000			-26.369			-3.767
63501.000			-26.367			-3.767
63600.000			-26.366			-3.767
63700.000			-26.366			-3.767
63801.000			-26.365			-3.766
63900.000			-26.364			-3.766
64001.000			-26.363			-3.766
64102.000			-26.362			-3.766
64200.000			-26.361			-3.766
64300.000			-26.360			-3.766
64400.000			-26.359			-3.766
64500.000			-26.357			-3.765
64601.000			-26.357			-3.765
64700.000			-26.356			-3.765
64800.000			-26.355			-3.765
64902.000			-26.354			-3.765
65001.000			-26.354			-3.765
65100.000			-26.353			-3.765
65201.000			-26.351			-3.764
65300.000			-26.351			-3.764
65400.000			-26.349			-3.764
65501.000			-26.348			-3.764
65600.000			-26.348			-3.764
65701.000			-26.346			-3.764
65802.000			-26.346			-3.764
65900.000			-26.344			-3.763
66000.000			-26.343			-3.763
66101.000			-26.343			-3.763
66200.000			-26.343			-3.763
66300.000			-26.341			-3.763
66401.000			-26.340			-3.763
66501.000			-26.340			-3.763
66601.000			-26.339			-3.763
66701.000			-26.337			-3.762
66800.000			-26.336			-3.762
66900.000			-26.335			-3.762
67001.000			-26.335			-3.762
67100.000			-26.334			-3.762
67200.000			-26.333			-3.762
67302.000			-26.332			-3.762
67401.000			-26.331			-3.762
67500.000			-26.331			-3.762
67600.000			-26.330			-3.761
67700.000			-26.328			-3.761
67801.000			-26.328			-3.761
67900.000			-26.327			-3.761
68000.000			-26.325			-3.761
68102.000			-26.325			-3.761
68201.000			-26.323			-3.760
68300.000			-26.323			-3.760
68401.000			-26.323			-3.760
68500.000			-26.321			-3.760
68600.000			-26.319			-3.760
68701.000			-26.319			-3.760
68800.000			-26.318			-3.760
68901.000			-26.317			-3.760
69002.000			-26.317			-3.760
69101.000			-26.316			-3.759
69200.000			-26.315			-3.759
69301.000			-26.314			-3.759
69400.000			-26.314			-3.759
69500.000			-26.312			-3.759
69601.000			-26.310			-3.759
69700.000			-26.310			-3.759
69801.000			-26.309			-3.758
69902.000			-26.307			-3.758
70000.000			-26.307			-3.758
70100.000			-26.307			-3.758
70201.000			-26.305			-3.758
70300.000			-26.304			-3.758
70400.000			-26.303			-3.758
70501.000			-26.303			-3.758
70601.000			-26.302			-3.757
70702.000			-26.301			-3.757
70800.000			-26.300			-3.757
70900.000			-26.299			-3.757
71001.000			-26.298			-3.757
71100.000			-26.297			-3.757
71200.000			-26.297			-3.757
71301.000			-26.297			-3.757
71401.000			-26.296			-3.757
71501.000			-26.295			-3.756
71601.000			-26.294			-3.756
71700.000			-26.294			-3.756
71800.000			-26.292			-3.756
71901.000			-26.291			-3.756
72000.000			-26.290			-3.756
72100.000			-26.289			-3.756
72202.000			-26.288			-3.755
72301.000			-26.287			-3.755
72400.000			-26.286			-3.755
72501.000			-26.285			-3.755
72600.000			-26.284			-3.755
72700.000			-26.283			-3.755
72801.000			-26.282			-3.755
72900.000			-26.282			-3.755
73000.000			-26.282			-3.755
73102.000			-26.280			-3.754
73201.000			-26.279			-3.754
73300.000			-26.278			-3.754
73401.000			-26.277			-3.754
73500.000			-26.276			-3.754
73600.000			-26.275			-3.754
73701.000			-26.275			-3.754
73800.000			-26.274			-3.753
73902.000			-26.273			-3.753
74001.000			-26.272			-3.753
74100.000			-26.273			-3.753
74201.000			-26.271			-3.753
74300.000			-26.270			-3.753
74400.000			-26.270			-3.753
74501.000			-26.269			-3.753
74600.000			-26.268			-3.753
74701.000			-26.267			-3.752
74802.000			-26.266			-3.752
74900.000			-26.265			-3.752
75000.000			-26.264			-3.752
75101.000			-26.264			-3.752
75200.000			-26.263			-3.752
75300.000			-26.262			-3.752
75401.000			-26.262			-3.752
75501.000			-26.260			-3.751
75601.000			-26.259			-3.751
75702.000			-26.258			-3.751
75800.000			-26.257			-3.751
75900.000			-26.258			-3.751
76001.000			-26.257			-3.751
76100.000			-26.256			-3.751
76200.000			-26.255			-3.751
76301.000			-26.254			-3.751
76401.000			-26.252			-3.750
76501.000			-26.252			-3.750
76601.000			-26.252			-3.750
76700.000			-26.251			-3.750
76800.000			-26.250			-3.750
76901.000			-26.247			-3.750
77000.000			-26.247			-3.750
77100.000			-26.248			-3.750
77202.000			-26.247			-3.750
77301.000			-26.246			-3.749
77401.000			-26.245			-3.749
77500.000			-26.245			-3.749
77600.000			-26.244			-3.749
77701.000			-26.241			-3.749
77800.000			-26.241			-3.749
77900.000			-26.241			-3.749
78002.000			-26.240			-3.749
78101.000			-26.239			-3.748
78200.000			-26.239			-3.748
78301.000			-26.238			-3.748
78400.000			-26.237			-3.748
78500.000			-26.237			-3.748
78601.000			-26.236			-3.748
78700.000			-26.235			-3.748
78800.000			-26.233			-3.748
78902.000			-26.232			-3.747
79001.000			-26.232			-3.747
79100.000			-26.230			-3.747
79201.000			-26.230			-3.747
79300.000			-26.230			-3.747
79400.000			-26.229			-3.747
79501.000			-26.228			-3.747
79600.000			-26.227			-3.747
79701.000			-26.227			-3.747
79802.000			-26.226			-3.747
79900.000			-26.224			-3.746
80000.000			-26.222			-3.746
80101.000			-26.223			-3.746
80200.000			-26.224			-3.746
80300.000			-26.223			-3.746
80400.000			-26.221			-3.746
80501.000			-26.221			-3.746
80602.000			-26.219			-3.746
80700.000			-26.218			-3.745
80800.000			-26.218			-3.745
80901.000			-26.218			-3.745
81000.000			-26.216			-3.745
81100.000			-26.216			-3.745
81201.000			-26.216			-3.745
81301.000			-26.213			-3.745
81401.000			-26.212			-3.745
81501.000			-26.212			-3.745
81600.000			-26.213			-3.745
81700.000			-26.211			-3.744
81801.000			-26.210			-3.744
81900.000			-26.208			-3.744
82000.000			-26.208			-3.744
82102.000			-26.208			-3.744
82201.000			-26.208			-3.744
82300.000			-26.207			-3.744
82401.000			-26.205			-3.744
82500.000			-26.205			-3.744
82600.000			-26.204			-3.743
82701.000			-26.204			-3.743
82800.000			-26.203			-3.743
82901.000			-26.202			-3.743
83002.000			-26.201			-3.743
83100.000			-26.201			-3.743
83200.000			-26.200			-3.743
83301.000			-26.199			-3.743
83400.000			-26.198			-3.743
83500.000			-26.198			-3.743
83600.000			-26.197			-3.742
83701.000			-26.196			-3.742
83802.000			-26.195			-3.742
83900.000			-26.194			-3.742
84000.000			-26.194			-3.742
84101.000			-26.193			-3.742
84200.000			-26.193			-3.742
84300.000			-26.192			-3.742
84401.000			-26.191			-3.742
84501.000			-26.190			-3.741
84601.000			-26.189			-3.741
84701.000			-26.189			-3.741
84800.000			-26.188			-3.741
84900.000			-26.188			-3.741
85001.000			-26.186			-3.741
85100.000			-26.186			-3.741
85200.000			-26.185			-3.741
85301.000			-26.184			-3.741
85401.000			-26.184			-3.741
85501.000			-26.184			-3.741
85601.000			-26.183			-3.740
85700.000			-26.181			-3.740
85800.000			-26.181			-3.740
85901.000			-26.181			-3.740
86000.000			-26.181			-3.740
86100.000			-26.179			-3.740
86202.000			-26.177			-3.740
86301.000			-26.177			-3.740
86400.000			-26.176			-3.739
86501.000			-26.175			-3.739
86600.000			-26.175			-3.739
86700.000			-26.174			-3.739
86800.000			-26.173			-3.739
86900.000			-26.172			-3.739
87002.000			-26.172			-3.739
87101.000			-26.172			-3.739
87201.000			-26.171			-3.739
87301.000			-26.170			-3.739
87400.000			-26.169			-3.738
87500.000			-26.168			-3.738
87601.000			-26.168			-3.738
87700.000			-26.168			-3.738
87800.000			-26.167			-3.738
87902.000			-26.165			-3.738
88001.000			-26.165			-3.738
88100.000			-26.164			-3.738
88201.000			-26.164			-3.738
88300.000			-26.163			-3.738
88400.000			-26.163			-3.738
88501.000			-26.162			-3.737
88600.000			-26.161			-3.737
88701.000			-26.160			-3.737
88802.000			-26.159			-3.737
88901.000			-26.159			-3.737
89000.000			-26.159			-3.737
89101.000			-26.159			-3.737
89200.000			-26.157			-3.737
89300.000			-26.156			-3.737
89401.000			-26.156			-3.737
89500.000			-26.156			-3.737
89601.000			-26.154			-3.736
89702.000			-26.154			-3.736
89800.000			-26.154			-3.736
89900.000			-26.153			-3.736
90000.000			-26.152			-3.736
90100.000			-26.151			-3.736
90201.000			-26.150			-3.736
90300.000			-26.148			-3.735
90401.000			-26.148			-3.735
90502.000			-26.149			-3.736
90600.000			-26.148			-3.735
90700.000			-26.148			-3.735
90801.000			-26.145			-3.735
90900.000			-26.144			-3.735
91000.000			-26.144			-3.735
91101.000			-26.143			-3.735
91201.000			-26.143			-3.735
91301.000			-26.143			-3.735
91401.000			-26.142			-3.735
91500.000			-26.141			-3.734
91600.000			-26.140			-3.734
91701.000			-26.140			-3.734
91800.000			-26.139			-3.734
91900.000			-26.138			-3.734
92002.000			-26.137			-3.734
92101.000			-26.137			-3.734
92200.000			-26.138			-3.734
92301.000			-26.136			-3.734
92400.000			-26.135			-3.734
92500.000			-26.134			-3.733
92601.000			-26.134			-3.733
92700.000			-26.134			-3.733
92801.000			-26.132			-3.733
92902.000			-26.132			-3.733
93001.000			-26.133			-3.733
93100.000			-26.131			-3.733
93200.000			-26.130			-3.733
93300.000			-26.130			-3.733
93401.000			-26.128			-3.733
93500.000			-26.127			-3.732
93600.000			-26.128			-3.733
93702.000			-26.126			-3.732
93801.000			-26.125			-3.732
93900.000			-26.125			-3.732
94001.000			-26.125			-3.732
94100.000			-26.125			-3.732
94200.000			-26.124			-3.732
94301.000			-26.123			-3.732
94400.000			-26.123			-3.732
94501.000			-26.121			-3.732
94602.000			-26.122			-3.732
94700.000			-26.120			-3.731
94800.000			-26.119			-3.731
94901.000			-26.119			-3.731
95000.000			-26.119			-3.731
95100.000			-26.117			-3.731
95201.000			-26.117			-3.731
95301.000			-26.116			-3.731
95401.000			-26.116			-3.731
95501.000			-26.115			-3.731
95600.000			-26.114			-3.731
95700.000			-26.113			-3.730
95801.000			-26.113			-3.730
95900.000			-26.111			-3.730
96000.000			-26.111			-3.730
96102.000			-26.111			-3.730
96201.000			-26.110			-3.730
96300.000			-26.109			-3.730
96400.000			-26.109			-3.730
96500.000			-26.108			-3.730
96601.000			-26.107			-3.730
96700.000			-26.106			-3.729
96800.000			-26.106			-3.729
96902.000			-26.106			-3.729
97001.000			-26.104			-3.729
97100.000			-26.104			-3.729
97201.000			-26.105			-3.729
97300.000			-26.104			-3.729
97400.000			-26.102			-3.729
97501.000			-26.103			-3.729
97600.000			-26.101			-3.729
97701.000			-26.100			-3.729
97802.000			-26.100			-3.729
97901.000			-26.099			-3.728
98000.000			-26.099			-3.728
98101.000			-26.098			-3.728
98200.000			-26.099			-3.728
98300.000			-26.098			-3.728
98401.000			-26.096			-3.728
98500.000			-26.096			-3.728
98601.000			-26.095			-3.728
98702.000			-26.094			-3.728
98800.000			-26.094			-3.728
98900.000			-26.091			-3.727
99001.000			-26.092			-3.727
99100.000			-26.091			-3.727
99200.000			-26.092			-3.727
99301.000			-26.090			-3.727
99401.000			-26.090			-3.727
99502.000			-26.090			-3.727
99601.000			-26.090			-3.727
99700.000			-26.089			-3.727
99801.000			-26.087			-3.727
99900.000			-26.086			-3.727
100000.000			-26.085			-3.726
100101.000			-26.085			-3.726
100200.000			-26.085			-3.726
100301.000			-26.083			-3.726
100402.000			-26.083			-3.726
100500.000			-26.082			-3.726
100600.000			-26.082			-3.726
100701.000			-26.082			-3.726
100800.000			-26.082			-3.726
100900.000			-26.081			-3.726
101001.000			-26.078			-3.725
101101.000			-26.078			-3.725
101201.000			-26.078			-3.725
101302.000			-26.078			-3.725
101400.000			-26.077			-3.725
101500.000			-26.077			-3.725
101601.000			-26.077			-3.725
101700.000			-26.076			-3.725
101800.000			-26.074			-3.725
101901.000			-26.074			-3.725
102001.000			-26.074			-3.725
102101.000			-26.073			-3.725
102201.000			-26.073			-3.725
102300.000			-26.073			-3.725
102400.000			-26.071			-3.724
102501.000			-26.070			-3.724
102600.000			-26.069			-3.724
102700.000			-26.069			-3.724
102802.000			-26.068			-3.724
102901.000			-26.068			-3.724
103001.000			-26.068			-3.724
103100.000			-26.067			-3.724
103200.000			-26.066			-3.724
103301.000			-26.066			-3.724
103400.000			-26.066			-3.724
103500.000			-26.065			-3.724
103602.000			-26.064			-3.723
103701.000			-26.064			-3.723
103801.000			-26.063			-3.723
103901.000			-26.062			-3.723
104000.000			-26.061			-3.723
104100.000			-26.061			-3.723
104201.000			-26.061			-3.723
104300.000			-26.060			-3.723
104400.000			-26.059			-3.723
104502.000			-26.059			-3.723
104601.000			-26.059			-3.723
104700.000			-26.057			-3.722
104801.000			-26.056			-3.722
104900.000			-26.054			-3.722
105000.000			-26.055			-3.722
105101.000			-26.056			-3.722
105200.000			-26.056			-3.722
105301.000			-26.055			-3.722
105402.000			-26.052			-3.722
105501.000			-26.053			-3.722
105600.000			-26.052			-3.722
105701.000			-26.052			-3.722
105800.000			-26.051			-3.722
105900.000			-26.051			-3.722
106000.000			-26.051			-3.722
106100.000			-26.050			-3.721
106202.000			-26.048			-3.721
106301.000			-26.047			-3.721
106400.000			-26.047			-3.721
106501.000			-26.047			-3.721
106600.000			-26.046			-3.721
106700.000			-26.045			-3.721
106801.000			-26.044			-3.721
106900.000			-26.043			-3.720
107001.000			-26.044			-3.721
107102.000			-26.043			-3.720
107200.000			-26.043			-3.720
107300.000			-26.042			-3.720
107401.000			-26.041			-3.720
107500.000			-26.041			-3.720
107600.000			-26.040			-3.720
107701.000			-26.040			-3.720
107801.000			-26.039			-3.720
107901.000			-26.039			-3.720
108002.000			-26.038			-3.720
108100.000			-26.037			-3.720
108200.000			-26.038			-3.720
108301.000			-26.036			-3.719
108400.000			-26.035			-3.719
108500.000			-26.035			-3.719
108601.000			-26.035			-3.719
108701.000			-26.035			-3.719
108801.000			-26.034			-3.719
108901.000			-26.033			-3.719
109000.000			-26.032			-3.719
109100.000			-26.031			-3.719
109200.000			-26.031			-3.719
109300.000			-26.031			-3.719
109401.000			-26.030			-3.719
109501.000			-26.030			-3.719
109601.000			-26.028			-3.718
109701.000			-26.028			-3.718
109800.000			-26.029			-3.718
109900.000			-26.028			-3.718
110001.000			-26.026			-3.718
110100.000			-26.025			-3.718
110200.000			-26.025			-3.718
110301.000			-26.025			-3.718
110401.000			-26.025			-3.718
110501.000			-26.023			-3.718
110601.000			-26.023			-3.718
110700.000			-26.022			-3.717
110800.000			-26.021			-3.717
110901.000			-26.021			-3.717
111000.000			-26.021			-3.717
111100.000			-26.022			-3.717
111202.000			-26.021			-3.717
111301.000			-26.018			-3.717
111400.000			-26.018			-3.717
111501.000			-26.018			-3.717
111600.000			-26.018			-3.717
111700.000			-26.018			-3.717
111801.000			-26.018			-3.717
111900.000			-26.017			-3.717
112001.000			-26.014			-3.716
112102.000			-26.014			-3.716
112200.000			-26.014			-3.716
112300.000			-26.014			-3.716
112400.000			-26.014			-3.716
112500.000			-26.013			-3.716
112601.000			-26.012			-3.716
112700.000			-26.012			-3.716
112801.000			-26.011			-3.716
112902.000			-26.010			-3.716
113000.000			-26.011			-3.716
113100.000			-26.009			-3.716
113201.000			-26.009			-3.716
113300.000			-26.009			-3.716
113400.000			-26.007			-3.715
113501.000			-26.008			-3.715
113601.000			-26.007			-3.715
113701.000			-26.007			-3.715
113801.000			-26.006			-3.715
113900.000			-26.005			-3.715
114000.000			-26.004			-3.715
114101.000			-26.003			-3.715
114200.000			-26.003			-3.715
114300.000			-26.003			-3.715
114402.000			-26.003			-3.715
114501.000			-26.003			-3.715
114601.000			-26.002			-3.715
114701.000			-26.002			-3.715
114800.000			-26.002			-3.715
114900.000			-25.999			-3.714
115001.000			-25.998			-3.714
115100.000			-25.999			-3.714
115200.000			-25.999			-3.714
115302.000			-25.997			-3.714
115401.000			-25.997			-3.714
115500.000			-25.996			-3.714
115600.000			-25.996			-3.714
115700.000			-25.995			-3.714
115801.000			-25.996			-3.714
115900.000			-25.995			-3.714
116000.000			-25.994			-3.713
116101.000			-25.992			-3.713
116201.000			-25.992			-3.713
116301.000			-25.992			-3.713
116401.000			-25.993			-3.713
116500.000			-25.992			-3.713
116600.000			-25.991			-3.713
116701.000			-25.990			-3.713
116800.000			-25.989			-3.713
116900.000			-25.989			-3.713
117001.000			-25.989			-3.713
117101.000			-25.988			-3.713
117201.000			-25.987			-3.712
117301.000			-25.987			-3.712
117400.000			-25.986			-3.712
117500.000			-25.986			-3.712
117601.000			-25.986			-3.712
117700.000			-25.986			-3.712
117800.000			-25.984			-3.712
117901.000			-25.983			-3.712
118001.000			-25.984			-3.712
118101.000			-25.983			-3.712
118201.000			-25.981			-3.712
118300.000			-25.982			-3.712
118400.000			-25.981			-3.712
118501.000			-25.982			-3.712
118600.000			-25.980			-3.711
118700.000			-25.980			-3.711
118800.000			-25.978			-3.711
118901.000			-25.978			-3.711
119002.000			-25.979			-3.711
119100.000			-25.978			-3.711
119200.000			-25.977			-3.711
119301.000			-25.978			-3.711
119400.000			-25.976			-3.711
119500.000			-25.975			-3.711
119601.000			-25.975			-3.711
119700.000			-25.975			-3.711
119801.000			-25.973			-3.710
119902.000			-25.974			-3.711
120000.000			-25.974			-3.711
120100.000			-25.973			-3.710
120201.000			-25.971			-3.710
120300.000			-25.971			-3.710
120400.000			-25.971			-3.710
120501.000			-25.971			-3.710
120601.000			-25.970			-3.710
120701.000			-25.970			-3.710
120802.000			-25.969			-3.710
120900.000			-25.968			-3.710
121000.000			-25.968			-3.710
121101.000			-25.967			-3.710
121200.000			-25.965			-3.709
121300.000			-25.966			-3.709
121401.000			-25.966			-3.709
121501.000			-25.964			-3.709
121601.000			-25.964			-3.709
121701.000			-25.964			-3.709
121800.000			-25.963			-3.709
121900.000			-25.964			-3.709
122000.000			-25.964			-3.709
122100.000			-25.963			-3.709
122201.000			-25.961			-3.709
122301.000			-25.960			-3.709
122401.000			-25.961			-3.709
122502.000			-25.960			-3.709
122600.000			-25.959			-3.708
122700.000			-25.959			-3.708
122801.000			-25.959			-3.708
122900.000			-25.959			-3.708
123000.000			-25.956			-3.708
123101.000			-25.956			-3.708
123201.000			-25.956			-3.708
123301.000			-25.955			-3.708
123402.000			-25.955			-3.708
123500.000			-25.955			-3.708
123600.000			-25.955			-3.708
123701.000			-25.954			-3.708
123800.000			-25.953			-3.708
123900.000			-25.953			-3.708
124001.000			-25.952			-3.707
124101.000			-25.952			-3.707
124201.000			-25.952			-3.707
124301.000			-25.951			-3.707
124400.000			-25.951			-3.707
124500.000			-25.949			-3.707
124601.000			-25.949			-3.707
124700.000			-25.949			-3.707
124800.000			-25.949			-3.707
124901.000			-25.949			-3.707
125001.000			-25.948			-3.707
125102.000			-25.947			-3.707
125200.000			-25.947			-3.707
125300.000			-25.946			-3.707
125401.000			-25.945			-3.706
125500.000			-25.944			-3.706
125600.000			-25.945			-3.706
125701.000			-25.944			-3.706
125800.000			-25.944			-3.706
125901.000			-25.942			-3.706
126002.000			-25.941			-3.706
126100.000			-25.942			-3.706
126200.000			-25.943			-3.706
126301.000			-25.942			-3.706
126400.000			-25.941			-3.706
126500.000			-25.940			-3.706
126601.000			-25.939			-3.706
126701.000			-25.939			-3.706
126801.000			-25.939			-3.706
126902.000			-25.938			-3.705
127000.000			-25.938			-3.705
127100.000			-25.937			-3.705
127201.000			-25.937			-3.705
127300.000			-25.936			-3.705
127400.000			-25.935			-3.705
127501.000			-25.935			-3.705
127601.000			-25.935			-3.705
127701.000			-25.935			-3.705
127801.000			-25.935			-3.705
127900.000			-25.933			-3.705
128000.000			-25.931			-3.704
128101.000			-25.932			-3.705
128200.000			-25.932			-3.705
128300.000			-25.931			-3.704
128400.000			-25.931			-3.704
128501.000			-25.931			-3.704
128602.000			-25.931			-3.704
128700.000			-25.929			-3.704
128800.000			-25.929			-3.704
128901.000			-25.928			-3.704
129000.000			-25.927			-3.704
129100.000			-25.927			-3.704
129201.000			-25.927			-3.704
129300.000			-25.926			-3.704
129401.000			-25.926			-3.704
129502.000			-25.925			-3.704
129600.000			-25.924			-3.703
129700.000			-25.924			-3.703
129801.000			-25.923			-3.703
129900.000			-25.923			-3.703
130000.000			-25.923			-3.703
130101.000			-25.922			-3.703
130201.000			-25.921			-3.703
130301.000			-25.921			-3.703
130401.000			-25.921			-3.703
130500.000			-25.920			-3.703
130600.000			-25.920			-3.703
130701.000			-25.919			-3.703
130800.000			-25.919			-3.703
130900.000			-25.918			-3.703
131001.000			-25.917			-3.702
131101.000			-25.917			-3.702
131201.000			-25.917			-3.702
131301.000			-25.916			-3.702
131400.000			-25.915			-3.702
131500.000			-25.915			-3.702
131600.000			-25.916			-3.702
131700.000			-25.913			-3.702
131801.000			-25.913			-3.702
131900.000			-25.913			-3.702
132001.000			-25.913			-3.702
132102.000			-25.913			-3.702
132201.000			-25.912			-3.702
132300.000			-25.912			-3.702
132401.000			-25.912			-3.702
132500.000			-25.911			-3.702
132600.000			-25.910			-3.701
132701.000			-25.909			-3.701
132800.000			-25.910			-3.701
132901.000			-25.910			-3.701
133002.000			-25.908			-3.701
133101.000			-25.907			-3.701
133200.000			-25.908			-3.701
133301.000			-25.907			-3.701
133400.000			-25.906			-3.701
133500.000			-25.906			-3.701
133601.000			-25.907			-3.701
133700.000			-25.906			-3.701
133800.000			-25.904			-3.701
133902.000			-25.904			-3.701
134001.000			-25.904			-3.701
134100.000			-25.903			-3.700
134201.000			-25.903			-3.700
134300.000			-25.903			-3.700
134400.000			-25.902			-3.700
134501.000			-25.901			-3.700
134600.000			-25.901			-3.700
134700.000			-25.901			-3.700
134802.000			-25.900			-3.700
134901.000			-25.899			-3.700
135001.000			-25.899			-3.700
135100.000			-25.900			-3.700
135200.000			-25.900			-3.700
135301.000			-25.899			-3.700
135400.000			-25.897			-3.700
135500.000			-25.896			-3.699
135601.000			-25.896			-3.699
135701.000			-25.895			-3.699
135801.000			-25.893			-3.699
135902.000			-25.893			-3.699
136000.000			-25.894			-3.699
136100.000			-25.894			-3.699
136201.000			-25.894			-3.699
136300.000			-25.894			-3.699
136400.000			-25.895			-3.699
136501.000			-25.893			-3.699
136600.000			-25.892			-3.699
136701.000			-25.892			-3.699
136802.000			-25.891			-3.699
136901.000			-25.890			-3.699
137000.000			-25.890			-3.699
137101.000			-25.889			-3.698
137200.000			-25.888			-3.698
137300.000			-25.888			-3.698
137401.000			-25.888			-3.698
137500.000			-25.887			-3.698
137600.000			-25.887			-3.698
137702.000			-25.887			-3.698
137801.000			-25.887			-3.698
137902.000			-25.887			-3.698
138000.000			-25.886			-3.698
138100.000			-25.886			-3.698
138201.000			-25.886			-3.698
138300.000			-25.884			-3.698
138400.000			-25.883			-3.698
138501.000			-25.883			-3.698
138600.000			-25.882			-3.697
138701.000			-25.882			-3.697
138802.000			-25.881			-3.697
138901.000			-25.881			-3.697
139000.000			-25.880			-3.697
139101.000			-25.880			-3.697
139200.000			-25.880			-3.697
139300.000			-25.880			-3.697
139401.000			-25.879			-3.697
139500.000			-25.879			-3.697
139600.000			-25.879			-3.697
139702.000			-25.878			-3.697
139801.000			-25.877			-3.697
139901.000			-25.877			-3.697
140001.000			-25.876			-3.697
140100.000			-25.876			-3.697
140200.000			-25.875			-3.696
140301.000			-25.875			-3.696
140400.000			-25.875			-3.696
140500.000			-25.874			-3.696
140601.000			-25.873			-3.696
140701.000			-25.872			-3.696
140801.000			-25.872			-3.696
140901.000			-25.871			-3.696
141000.000			-25.872			-3.696
141100.000			-25.873			-3.696
141200.000			-25.871			-3.696
141300.000			-25.870			-3.696
141401.000			-25.870			-3.696
141500.000			-25.869			-3.696
141601.000			-25.869			-3.696
141702.000			-25.869			-3.696
141801.000			-25.869			-3.696
141900.000			-25.868			-3.695
142001.000			-25.867			-3.695
142100.000			-25.867			-3.695
142200.000			-25.867			-3.695
142301.000			-25.866			-3.695
142400.000			-25.865			-3.695
142500.000			-25.865			-3.695
142602.000			-25.865			-3.695
142701.000			-25.864			-3.695
142801.000			-25.864			-3.695
142901.000			-25.864			-3.695
143000.000			-25.863			-3.695
143100.000			-25.863			-3.695
143201.000			-25.862			-3.695
143300.000			-25.862			-3.695
143400.000			-25.861			-3.694
143502.000			-25.860			-3.694
143601.000			-25.860			-3.694
143701.000			-25.860			-3.694
143801.000			-25.859			-3.694
143900.000			-25.860			-3.694
144000.000			-25.859			-3.694
144101.000			-25.857			-3.694
144200.000			-25.857			-3.694
144300.000			-25.857			-3.694
144400.000			-25.857			-3.694
144501.000			-25.856			-3.694
144602.000			-25.856			-3.694
144701.000			-25.855			-3.694
144800.000			-25.855			-3.694
144901.000			-25.855			-3.694
145000.000			-25.855			-3.694
145100.000			-25.855			-3.694
145201.000			-25.854			-3.693
145300.000			-25.853			-3.693
145400.000			-25.853			-3.693
145502.000			-25.853			-3.693
145601.000			-25.852			-3.693
145700.000			-25.852			-3.693
145801.000			-25.853			-3.693
145900.000			-25.852			-3.693
146000.000			-25.850			-3.693
146101.000			-25.850			-3.693
146200.000			-25.849			-3.693
146300.000			-25.850			-3.693
146402.000			-25.849			-3.693
146501.000			-25.848			-3.693
146601.000			-25.848			-3.693
146701.000			-25.847			-3.692
146800.000			-25.846			-3.692
146900.000			-25.846			-3.692
147001.000			-25.847			-3.692
147100.000			-25.845			-3.692
147200.000			-25.844			-3.692
147301.000			-25.845			-3.692
147401.000			-25.844			-3.692
147502.000			-25.844			-3.692
147601.000			-25.845			-3.692
147700.000			-25.844			-3.692
147801.000			-25.844			-3.692
147900.000			-25.843			-3.692
148000.000			-25.842			-3.692
148101.000			-25.841			-3.692
148200.000			-25.841			-3.692
148300.000			-25.841			-3.692
148402.000			-25.841			-3.692
148501.000			-25.839			-3.691
148600.000			-25.839			-3.691
148701.000			-25.839			-3.691
148800.000			-25.839			-3.691
148900.000			-25.838			-3.691
149001.000			-25.838			-3.691
149100.000			-25.837			-3.691
149200.000			-25.838			-3.691
149302.000			-25.836			-3.691
149401.000			-25.837			-3.691
149501.000			-25.836			-3.691
149601.000			-25.836			-3.691
149700.000			-25.835			-3.691
149800.000			-25.834			-3.691
149901.000			-25.834			-3.691
150000.000			-25.834			-3.691
150100.000			-25.834			-3.691
150201.000			-25.833			-3.690
150301.000			-25.832			-3.690
150401.000			-25.832			-3.690
150501.000			-25.832			-3.690
150600.000			-25.832			-3.690
150700.000			-25.830			-3.690
150800.000			-25.830			-3.690
150900.000			-25.830			-3.690
151001.000			-25.829			-3.690
151100.000			-25.830			-3.690
151201.000			-25.830			-3.690
151302.000			-25.828			-3.690
151401.000			-25.828			-3.690
151500.000			-25.828			-3.690
151601.000			-25.828			-3.690
151700.000			-25.826			-3.689
151800.000			-25.826			-3.689
151901.000			-25.825			-3.689
152000.000			-25.825			-3.689
152100.000			-25.826			-3.689
152202.000			-25.825			-3.689
152301.000			-25.824			-3.689
152400.000			-25.823			-3.689
152501.000			-25.823			-3.689
152600.000			-25.824			-3.689
152700.000			-25.824			-3.689
152801.000			-25.823			-3.689
152900.000			-25.821			-3.689
153000.000			-25.822			-3.689
153102.000			-25.822			-3.689
153201.000			-25.821			-3.689
153301.000			-25.821			-3.689
153401.000			-25.821			-3.689
153500.000			-25.819			-3.688
153600.000			-25.819			-3.688
153701.000			-25.818			-3.688
153800.000			-25.818			-3.688
153900.000			-25.818			-3.688
154000.000			-25.817			-3.688
154101.000			-25.816			-3.688
154202.000			-25.817			-3.688
154300.000			-25.817			-3.688
154400.000			-25.816			-3.688
154501.000			-25.815			-3.688
154600.000			-25.814			-3.688
154700.000			-25.813			-3.688
154801.000			-25.813			-3.688
154900.000			-25.813			-3.688
155001.000			-25.814			-3.688
155102.000			-25.813			-3.688
155201.000			-25.813			-3.688
155300.000			-25.813			-3.688
155401.000			-25.812			-3.687
155500.000			-25.811			-3.687
155600.000			-25.811			-3.687
155701.000			-25.811			-3.687
155800.000			-25.811			-3.687
155900.000			-25.809			-3.687
156002.000			-25.809			-3.687
156101.000			-25.808			-3.687
156200.000			-25.808			-3.687
156301.000			-25.808			-3.687
156400.000			-25.808			-3.687
156500.000			-25.808			-3.687
156601.000			-25.807			-3.687
156700.000			-25.807			-3.687
156800.000			-25.805			-3.686
156902.000			-25.805			-3.686
157001.000			-25.805			-3.686
157102.000			-25.805			-3.686
157200.000			-25.805			-3.686
157300.000			-25.805			-3.686
157401.000			-25.804			-3.686
157500.000			-25.804			-3.686
157600.000			-25.803			-3.686
157701.000			-25.803			-3.686
157801.000			-25.803			-3.686
157901.000			-25.802			-3.686
158002.000			-25.802			-3.686
158100.000			-25.800			-3.686
158200.000			-25.800			-3.686
158301.000			-25.800			-3.686
158400.000			-25.799			-3.686
158500.000			-25.799			-3.686
158601.000			-25.799			-3.686
158700.000			-25.799			-3.686
158801.000			-25.799			-3.686
158902.000			-25.798			-3.685
159001.000			-25.797			-3.685
159100.000			-25.797			-3.685
159201.000			-25.798			-3.685
159300.000			-25.796			-3.685
159400.000			-25.796			-3.685
159501.000			-25.796			-3.685
159600.000			-25.795			-3.685
159700.000			-25.795			-3.685
159802.000			-25.795			-3.685
159901.000			-25.794			-3.685
160001.000			-25.794			-3.685
160101.000			-25.794			-3.685
160200.000			-25.794			-3.685
160300.000			-25.793			-3.685
160400.000			-25.792			-3.685
160500.000			-25.792			-3.685
160601.000			-25.792			-3.685
160700.000			-25.791			-3.684
160801.000			-25.790			-3.684
160902.000			-25.790			-3.684
161001.000			-25.790			-3.684
161100.000			-25.789			-3.684
161201.000			-25.789			-3.684
161300.000			-25.789			-3.684
161400.000			-25.788			-3.684
161501.000			-25.788			-3.684
161600.000			-25.788			-3.684
161700.000			-25.787			-3.684
161802.000			-25.786			-3.684
161901.000			-25.786			-3.684
162000.000			-25.786			-3.684
162101.000			-25.785			-3.684
162200.000			-25.784			-3.683
162300.000			-25.784			-3.683
162401.000			-25.783			-3.683
162500.000			-25.783			-3.683
162600.000			-25.783			-3.683
162702.000			-25.782			-3.683
162801.000			-25.782			-3.683
162901.000			-25.782			-3.683
163001.000			-25.782			-3.683
163100.000			-25.782			-3.683
163200.000			-25.781			-3.683
163301.000			-25.781			-3.683
163400.000			-25.781			-3.683
163500.000			-25.780			-3.683
163600.000			-25.779			-3.683
163701.000			-25.780			-3.683
163802.000			-25.779			-3.683
163901.000			-25.778			-3.683
164000.000			-25.778			-3.683
164101.000			-25.778			-3.683
164200.000			-25.778			-3.683
164300.000			-25.776			-3.682
164401.000			-25.776			-3.682
164500.000			-25.777			-3.682
164600.000			-25.776			-3.682
164702.000			-25.775			-3.682
164801.000			-25.775			-3.682
164901.000			-25.775			-3.682
165001.000			-25.776			-3.682
165100.000			-25.774			-3.682
165200.000			-25.774			-3.682
165301.000			-25.774			-3.682
165400.000			-25.773			-3.682
165500.000			-25.774			-3.682
165601.000			-25.773			-3.682
165701.000			-25.771			-3.682
165801.000			-25.771			-3.682
165901.000			-25.771			-3.682
166000.000			-25.770			-3.681
166100.000			-25.769			-3.681
166201.000			-25.769			-3.681
166300.000			-25.769			-3.681
166400.000			-25.769			-3.681
166501.000			-25.768			-3.681
166601.000			-25.769			-3.681
166702.000			-25.768			-3.681
166801.000			-25.767			-3.681
166900.000			-25.767			-3.681
167001.000			-25.766			-3.681
167100.000			-25.765			-3.681
167200.000			-25.766			-3.681
167301.000			-25.766			-3.681
167400.000			-25.765			-3.681
167500.000			-25.766			-3.681
167602.000			-25.764			-3.681
167701.000			-25.765			-3.681
167801.000			-25.764			-3.681
167901.000			-25.763			-3.680
168000.000			-25.763			-3.680
168100.000			-25.763			-3.680
168201.000			-25.763			-3.680
168300.000			-25.762			-3.680
168400.000			-25.761			-3.680
168501.000			-25.761			-3.680
168601.000			-25.762			-3.680
168701.000			-25.760			-3.680
168802.000			-25.760			-3.680
168900.000			-25.760			-3.680
169000.000			-25.759			-3.680
169101.000			-25.759			-3.680
169200.000			-25.758			-3.680
169300.000			-25.758			-3.680
169401.000			-25.758			-3.680
169500.000			-25.757			-3.680
169601.000			-25.757			-3.680
169702.000			-25.758			-3.680
169801.000			-25.757			-3.680
169900.000			-25.755			-3.679
170000.000			-25.755			-3.679
170100.000			-25.755			-3.679
170201.000			-25.754			-3.679
170300.000			-25.754			-3.679
170400.000			-25.755			-3.679
170501.000			-25.753			-3.679
170601.000			-25.753			-3.679
170701.000			-25.754			-3.679
170801.000			-25.753			-3.679
170900.000			-25.752			-3.679
171000.000			-25.752			-3.679
171101.000			-25.751			-3.679
171200.000			-25.749			-3.678
171300.000			-25.749			-3.678
171401.000			-25.749			-3.678
171501.000			-25.750			-3.679
171601.000			-25.749			-3.678
171702.000			-25.749			-3.678
171800.000			-25.749			-3.678
171900.000			-25.749			-3.678
172001.000			-25.748			-3.678
172100.000			-25.747			-3.678
172200.000			-25.747			-3.678
172301.000			-25.747			-3.678
172400.000			-25.748			-3.678
172501.000			-25.746			-3.678
172602.000			-25.745			-3.678
172701.000			-25.745			-3.678
172800.000			-25.745			-3.678
172901.000			-25.744			-3.678
173000.000			-25.745			-3.678
173100.000			-25.745			-3.678
173200.000			-25.745			-3.678
173300.000			-25.744			-3.678
173401.000			-25.743			-3.678
173501.000			-25.741			-3.677
173601.000			-25.741			-3.677
173701.000			-25.742			-3.677
173800.000			-25.742			-3.677
173900.000			-25.741			-3.677
174001.000			-25.741			-3.677
174100.000			-25.740			-3.677
174200.000			-25.740			-3.677
174301.000			-25.739			-3.677
174401.000			-25.738			-3.677
174501.000			-25.739			-3.677
174602.000			-25.739			-3.677
174700.000			-25.738			-3.677
174800.000			-25.738			-3.677
174901.000			-25.737			-3.677
175000.000			-25.736			-3.677
175100.000			-25.736			-3.677
175201.000			-25.737			-3.677
175300.000			-25.737			-3.677
175401.000			-25.736			-3.677
175502.000			-25.735			-3.676
175601.000			-25.734			-3.676
175700.000			-25.734			-3.676
175801.000			-25.733			-3.676
175900.000			-25.733			-3.676
176000.000			-25.734			-3.676
176101.000			-25.733			-3.676
176200.000			-25.733			-3.676
176300.000			-25.733			-3.676
176402.000			-25.733			-3.676
176501.000			-25.732			-3.676
176601.000			-25.731			-3.676
176700.000			-25.731			-3.676
176800.000			-25.731			-3.676
176901.000			-25.730			-3.676
177000.000			-25.730			-3.676
177100.000			-25.730			-3.676
177201.000			-25.730			-3.676
177301.000			-25.729			-3.676
177401.000			-25.729			-3.676
177502.000			-25.729			-3.676
177600.000			-25.728			-3.675
177700.000			-25.728			-3.675
177801.000			-25.727			-3.675
177900.000			-25.726			-3.675
178000.000			-25.726			-3.675
178101.000			-25.726			-3.675
178200.000			-25.725			-3.675
178301.000			-25.725			-3.675
178402.000			-25.725			-3.675
178501.000			-25.725			-3.675
178600.000			-25.724			-3.675
178701.000			-25.725			-3.675
178800.000			-25.724			-3.675
178900.000			-25.725			-3.675
179001.000			-25.723			-3.675
179100.000			-25.722			-3.675
179200.000			-25.722			-3.675
179302.000			-25.721			-3.674
179401.000			-25.721			-3.674
179500.000			-25.722			-3.675
179600.000			-25.721			-3.674
179700.000			-25.720			-3.674
179801.000			-25.719			-3.674
179900.000			-25.719			-3.674
180000.000			-25.719			-3.674
180101.000			-25.719			-3.674
180200.000			-25.719			-3.674
180301.000			-25.718			-3.674
180402.000			-25.719			-3.674
180500.000			-25.719			-3.674
180600.000			-25.718			-3.674
180701.000			-25.716			-3.674
180800.000			-25.717			-3.674
180900.000			-25.716			-3.674
181001.000			-25.716			-3.674
181100.000			-25.715			-3.674
181201.000			-25.714			-3.673
181302.000			-25.714			-3.673
181401.000			-25.715			-3.674
181500.000			-25.714			-3.673
181601.000			-25.714			-3.673
181700.000			-25.713			-3.673
181800.000			-25.713			-3.673
181901.000			-25.713			-3.673
182000.000			-25.713			-3.673
182100.000			-25.712			-3.673
182202.000			-25.712			-3.673
182301.000			-25.711			-3.673
182400.000			-25.711			-3.673
182501.000			-25.710			-3.673
182600.000			-25.710			-3.673
182700.000			-25.710			-3.673
182800.000			-25.710			-3.673
182900.000			-25.710			-3.673
183001.000			-25.708			-3.673
183101.000			-25.708			-3.673
183201.000			-25.708			-3.673
183301.000			-25.708			-3.673
183400.000			-25.707			-3.672
183500.000			-25.708			-3.673
183601.000			-25.706			-3.672
183700.000			-25.705			-3.672
183800.000			-25.705			-3.672
183901.000			-25.705			-3.672
184001.000			-25.705			-3.672
184101.000			-25.704			-3.672
184201.000			-25.704			-3.672
184300.000			-25.704			-3.672
184400.000			-25.703			-3.672
184501.000			-25.704			-3.672
184600.000			-25.704			-3.672
184700.000			-25.702			-3.672
184801.000			-25.702			-3.672
184901.000			-25.702			-3.672
185001.000			-25.701			-3.672
185101.000			-25.700			-3.671
185200.000			-25.701			-3.672
185300.000			-25.701			-3.672
185401.000			-25.700			-3.671
185500.000			-25.700			-3.671
185600.000			-25.699			-3.671
185701.000			-25.699			-3.671
185801.000			-25.700			-3.671
185902.000			-25.698			-3.671
186001.000			-25.698			-3.671
186100.000			-25.698			-3.671
186201.000			-25.698			-3.671
186300.000			-25.698			-3.671
186400.000			-25.697			-3.671
186501.000			-25.696			-3.671
186600.000			-25.696			-3.671
186700.000			-25.696			-3.671
186801.000			-25.696			-3.671
186901.000			-25.695			-3.671
187001.000			-25.694			-3.671
187101.000			-25.694			-3.671
187200.000			-25.695			-3.671
187300.000			-25.695			-3.671
187401.000			-25.693			-3.670
187500.000			-25.693			-3.670
187600.000			-25.693			-3.670
187701.000			-25.693			-3.670
187800.000			-25.692			-3.670
187901.000			-25.692			-3.670
188002.000			-25.692			-3.670
188100.000			-25.691			-3.670
188200.000			-25.691			-3.670
188301.000			-25.690			-3.670
188400.000			-25.690			-3.670
188500.000			-25.690			-3.670
188601.000			-25.690			-3.670
188700.000			-25.689			-3.670
188800.000			-25.689			-3.670
188902.000			-25.689			-3.670
189001.000			-25.688			-3.670
189100.000			-25.688			-3.670
189200.000			-25.687			-3.670
189300.000			-25.688			-3.670
189401.000			-25.687			-3.670
189500.000			-25.686			-3.669
189600.000			-25.687			-3.670
189701.000			-25.686			-3.669
189801.000			-25.686			-3.669
189901.000			-25.685			-3.669
190002.000			-25.685			-3.669
190100.000			-25.686			-3.669
190200.000			-25.685			-3.669
190301.000			-25.683			-3.669
190400.000			-25.683			-3.669
190500.000			-25.682			-3.669
190601.000			-25.683			-3.669
190700.000			-25.683			-3.669
190801.000			-25.683			-3.669
190902.000			-25.683			-3.669
191001.000			-25.683			-3.669
191100.000			-25.682			-3.669
191201.000			-25.681			-3.669
191300.000			-25.680			-3.669
191400.000			-25.680			-3.669
191501.000			-25.680			-3.669
191600.000			-25.680			-3.669
191700.000			-25.679			-3.668
191802.000			-25.679			-3.668
191901.000			-25.679			-3.668
192001.000			-25.678			-3.668
192101.000			-25.678			-3.668
192200.000			-25.679			-3.668
192300.000			-25.679			-3.668
192400.000			-25.678			-3.668
192500.000			-25.676			-3.668
192601.000			-25.676			-3.668
192700.000			-25.675			-3.668
192801.000			-25.674			-3.668
192902.000			-25.675			-3.668
193000.000			-25.676			-3.668
193100.000			-25.675			-3.668
193201.000			-25.675			-3.668
193300.000			-25.674			-3.668
193400.000			-25.675			-3.668
193501.000			-25.675			-3.668
193600.000			-25.673			-3.668
193701.000			-25.673			-3.668
193802.000			-25.673			-3.668
193901.000			-25.674			-3.668
194000.000			-25.673			-3.668
194101.000			-25.672			-3.667
194200.000			-25.672			-3.667
194300.000			-25.671			-3.667
194401.000			-25.671			-3.667
194500.000			-25.671			-3.667
194600.000			-25.671			-3.667
194702.000			-25.671			-3.667
194801.000			-25.670			-3.667
194901.000			-25.669			-3.667
195001.000			-25.669			-3.667
195100.000			-25.669			-3.667
195200.000			-25.669			-3.667
195301.000			-25.668			-3.667
195400.000			-25.669			-3.667
195500.000			-25.669			-3.667
195600.000			-25.668			-3.667
195701.000			-25.667			-3.667
195802.000			-25.666			-3.667
195901.000			-25.666			-3.667
196000.000			-25.666			-3.667
196101.000			-25.665			-3.666
196200.000			-25.665			-3.666
196300.000			-25.665			-3.666
196401.000			-25.665			-3.666
196500.000			-25.665			-3.666
196600.000			-25.664			-3.666
196702.000			-25.664			-3.666
196801.000			-25.664			-3.666
196901.000			-25.663			-3.666
197001.000			-25.662			-3.666
197100.000			-25.662			-3.666
197200.000			-25.662			-3.666
197301.000			-25.661			-3.666
197400.000			-25.661			-3.666
197500.000			-25.662			-3.666
197601.000			-25.660			-3.666
197701.000			-25.660			-3.666
197801.000			-25.661			-3.666
197901.000			-25.660			-3.666
198000.000			-25.659			-3.666
198100.000			-25.659			-3.666
198201.000			-25.658			-3.665
198300.000			-25.658			-3.665
198400.000			-25.658			-3.665
198501.000			-25.658			-3.665
198600.000			-25.656			-3.665
198702.000			-25.656			-3.665
198801.000			-25.657			-3.665
198901.000			-25.657			-3.665
199001.000			-25.656			-3.665
199100.000			-25.656			-3.665
199200.000			-25.656			-3.665
199301.000			-25.655			-3.665
199400.000			-25.655			-3.665
199500.000			-25.655			-3.665
199601.000			-25.655			-3.665
199701.000			-25.656			-3.665
199801.000			-25.653			-3.665
199902.000			-25.652			-3.665
200000.000			-25.652			-3.665
200100.000			-25.653			-3.665
200201.000			-25.653			-3.665
200300.000			-25.652			-3.665
200400.000			-25.652			-3.665
200501.000			-25.653			-3.665
200601.000			-25.652			-3.665
200701.000			-25.652			-3.665
200802.000			-25.651			-3.664
200900.000			-25.650			-3.664
201000.000			-25.650			-3.664
201101.000			-25.649			-3.664
201200.000			-25.649			-3.664
201300.000			-25.650			-3.664
201401.000			-25.649			-3.664
201500.000			-25.649			-3.664
201601.000			-25.649			-3.664
201702.000			-25.647			-3.664
201800.000			-25.646			-3.664
201900.000			-25.648			-3.664
202000.000			-25.647			-3.664
202100.000			-25.646			-3.664
202201.000			-25.646			-3.664
202300.000			-25.646			-3.664
202400.000			-25.646			-3.664
202502.000			-25.646			-3.664
202601.000			-25.645			-3.664
202701.000			-25.645			-3.664
202801.000			-25.645			-3.664
202900.000			-25.644			-3.663
203000.000			-25.643			-3.663
203101.000			-25.644			-3.663
203200.000			-25.644			-3.663
203300.000			-25.644			-3.663
203402.000			-25.643			-3.663
203501.000			-25.643			-3.663
203601.000			-25.642			-3.663
203701.000			-25.642			-3.663
203800.000			-25.643			-3.663
203900.000			-25.642			-3.663
204001.000			-25.641			-3.663
204100.000			-25.640			-3.663
204200.000			-25.640			-3.663
204301.000			-25.640			-3.663
204401.000			-25.640			-3.663
204501.000			-25.639			-3.663
204601.000			-25.638			-3.663
204700.000			-25.639			-3.663
204800.000			-25.639			-3.663
204901.000			-25.639			-3.663
205000.000			-25.638			-3.663
205100.000			-25.638			-3.663
205200.000			-25.637			-3.662
205301.000			-25.637			-3.662
205402.000			-25.636			-3.662
205501.000			-25.637			-3.662
205600.000			-25.635			-3.662
205701.000			-25.635			-3.662
205800.000			-25.635			-3.662
205900.000			-25.636			-3.662
206001.000			-25.635			-3.662
206100.000			-25.635			-3.662
206200.000			-25.634			-3.662
206302.000			-25.634			-3.662
206401.000			-25.633			-3.662
206500.000			-25.633			-3.662
206601.000			-25.633			-3.662
206700.000			-25.632			-3.662
206800.000			-25.632			-3.662
206901.000			-25.632			-3.662
207000.000			-25.632			-3.662
207100.000			-25.632			-3.662
207202.000			-25.630			-3.661
207301.000			-25.630			-3.661
207400.000			-25.630			-3.661
207501.000			-25.630			-3.661
207600.000			-25.629			-3.661
207700.000			-25.629			-3.661
207801.000			-25.628			-3.661
207900.000			-25.629			-3.661
208000.000			-25.628			-3.661
208102.000			-25.628			-3.661
208201.000			-25.628			-3.661
208300.000			-25.628			-3.661
208400.000			-25.627			-3.661
208500.000			-25.627			-3.661
208601.000			-25.627			-3.661
208700.000			-25.626			-3.661
208800.000			-25.625			-3.661
208901.000			-25.626			-3.661
209001.000			-25.626			-3.661
209101.000			-25.626			-3.661
209202.000			-25.626			-3.661
209300.000			-25.625			-3.661
209400.000			-25.625			-3.661
209501.000			-25.624			-3.661
209600.000			-25.624			-3.661
209700.000			-25.624			-3.661
209801.000			-25.623			-3.660
209900.000			-25.623			-3.660
210001.000			-25.623			-3.660
210102.000			-25.622			-3.660
210200.000			-25.622			-3.660
210300.000			-25.621			-3.660
210401.000			-25.621			-3.660
210500.000			-25.622			-3.660
210600.000			-25.621			-3.660
210701.000			-25.620			-3.660
210801.000			-25.619			-3.660
210901.000			-25.620			-3.660
211002.000			-25.619			-3.660
211100.000			-25.619			-3.660
211200.000			-25.619			-3.660
211301.000			-25.619			-3.660
211400.000			-25.619			-3.660
211500.000			-25.619			-3.660
211600.000			-25.617			-3.660
211700.000			-25.616			-3.659
211802.000			-25.617			-3.660
211901.000			-25.618			-3.660
212000.000			-25.617			-3.660
212101.000			-25.616			-3.659
212200.000			-25.616			-3.659
212300.000			-25.616			-3.659
212401.000			-25.615			-3.659
212500.000			-25.615			-3.659
212600.000			-25.615			-3.659
212702.000			-25.615			-3.659
212801.000			-25.615			-3.659
212900.000			-25.613			-3.659
213001.000			-25.614			-3.659
213100.000			-25.614			-3.659
213200.000			-25.613			-3.659
213301.000			-25.612			-3.659
213400.000			-25.612			-3.659
213500.000			-25.612			-3.659
213602.000			-25.612			-3.659
213701.000			-25.611			-3.659
213800.000			-25.611			-3.659
213901.000			-25.611			-3.659
214000.000			-25.611			-3.659
214100.000			-25.611			-3.659
214201.000			-25.610			-3.659
214300.000			-25.610			-3.659
214400.000			-25.610			-3.659
214502.000			-25.608			-3.658
214601.000			-25.607			-3.658
214700.000			-25.608			-3.658
214800.000			-25.608			-3.658
214900.000			-25.608			-3.658
215001.000			-25.607			-3.658
215100.000			-25.606			-3.658
215200.000			-25.608			-3.658
215301.000			-25.607			-3.658
215401.000			-25.607			-3.658
215501.000			-25.607			-3.658
215601.000			-25.606			-3.658
215700.000			-25.606			-3.658
215800.000			-25.605			-3.658
215901.000			-25.604			-3.658
216000.000			-25.604			-3.658
216100.000			-25.604			-3.658
216201.000			-25.605			-3.658
216301.000			-25.605			-3.658
216401.000			-25.604			-3.658
216502.000			-25.603			-3.658
216600.000			-25.602			-3.657
216700.000			-25.602			-3.657
216801.000			-25.601			-3.657
216900.000			-25.601			-3.657
217000.000			-25.602			-3.657
217101.000			-25.601			-3.657
217201.000			-25.601			-3.657
217301.000			-25.601			-3.657
217402.000			-25.601			-3.657
217500.000			-25.600			-3.657
217600.000			-25.599			-3.657
217701.000			-25.599			-3.657
217800.000			-25.599			-3.657
217900.000			-25.599			-3.657
218000.000			-25.598			-3.657
218100.000			-25.600			-3.657
218202.000			-25.599			-3.657
218301.000			-25.598			-3.657
218400.000			-25.598			-3.657
218501.000			-25.597			-3.657
218600.000			-25.597			-3.657
218700.000			-25.598			-3.657
218801.000			-25.597			-3.657
218900.000			-25.596			-3.657
219000.000			-25.596			-3.657
219101.000			-25.596			-3.657
219201.000			-25.595			-3.656
219301.000			-25.595			-3.656
219401.000			-25.595			-3.656
219500.000			-25.594			-3.656
219600.000			-25.593			-3.656
219701.000			-25.593			-3.656
219800.000			-25.593			-3.656
219900.000			-25.594			-3.656
220001.000			-25.593			-3.656
220101.000			-25.592			-3.656
220201.000			-25.593			-3.656
220302.000			-25.592			-3.656
220400.000			-25.592			-3.656
220500.000			-25.591			-3.656
220601.000			-25.591			-3.656
220700.000			-25.590			-3.656
220800.000			-25.590			-3.656
220901.000			-25.590			-3.656
221000.000			-25.589			-3.656
221102.000			-25.590			-3.656
221201.000			-25.589			-3.656
221300.000			-25.589			-3.656
221401.000			-25.589			-3.656
221500.000			-25.588			-3.655
221600.000			-25.589			-3.656
221701.000			-25.589			-3.656
221800.000			-25.587			-3.655
221900.000			-25.586			-3.655
222002.000			-25.587			-3.655
222101.000			-25.586			-3.655
222201.000			-25.586			-3.655
222301.000			-25.586			-3.655
222400.000			-25.586			-3.655
222500.000			-25.584			-3.655
222601.000			-25.585			-3.655
222700.000			-25.585			-3.655
222800.000			-25.584			-3.655
222901.000			-25.583			-3.655
223001.000			-25.583			-3.655
223101.000			-25.584			-3.655
223201.000			-25.584			-3.655
223300.000			-25.582			-3.655
223400.000			-25.582			-3.655
223501.000			-25.584			-3.655
223600.000			-25.583			-3.655
223700.000			-25.582			-3.655
223801.000			-25.581			-3.654
223901.000			-25.581			-3.654
224001.000			-25.582			-3.655
224101.000			-25.581			-3.654
224200.000			-25.581			-3.654
224300.000			-25.581			-3.654
224400.000			-25.581			-3.654
224500.000			-25.580			-3.654
224601.000			-25.580			-3.654
224700.000			-25.579			-3.654
224801.000			-25.579			-3.654
224902.000			-25.579			-3.654
225001.000			-25.578			-3.654
225100.000			-25.578			-3.654
225201.000			-25.577			-3.654
225300.000			-25.577			-3.654
225400.000			-25.577			-3.654
225501.000			-25.577			-3.654
225600.000			-25.577			-3.654
225700.000			-25.577			-3.654
225802.000			-25.578			-3.654
225901.000			-25.577			-3.654
226001.000			-25.577			-3.654
226101.000			-25.576			-3.654
226200.000			-25.575			-3.654
226300.000			-25.574			-3.653
226401.000			-25.575			-3.654
226500.000			-25.574			-3.653
226600.000			-25.574			-3.653
226701.000			-25.574			-3.653
226801.000			-25.574			-3.653
226901.000			-25.573			-3.653
227001.000			-25.573			-3.653
227100.000			-25.573			-3.653
227200.000			-25.573			-3.653
227301.000			-25.572			-3.653
227400.000			-25.572			-3.653
227500.000			-25.573			-3.653
227600.000			-25.572			-3.653
227701.000			-25.570			-3.653
227802.000			-25.570			-3.653
227901.000			-25.571			-3.653
228000.000			-25.571			-3.653
228101.000			-25.571			-3.653
228200.000			-25.571			-3.653
228300.000			-25.570			-3.653
228401.000			-25.568			-3.653
228500.000			-25.569			-3.653
228600.000			-25.570			-3.653
228702.000			-25.570			-3.653
228801.000			-25.569			-3.653
228901.000			-25.567			-3.652
229001.000			-25.567			-3.652
229100.000			-25.566			-3.652
229200.000			-25.566			-3.652
229301.000			-25.566			-3.652
229400.000			-25.565			-3.652
229500.000			-25.566			-3.652
229601.000			-25.567			-3.652
229701.000			-25.566			-3.652
229801.000			-25.565			-3.652
229901.000			-25.564			-3.652
230000.000			-25.564			-3.652
230100.000			-25.563			-3.652
230201.000			-25.564			-3.652
230300.000			-25.564			-3.652
230400.000			-25.563			-3.652
230501.000			-25.563			-3.652
230601.000			-25.563			-3.652
230702.000			-25.563			-3.652
230801.000			-25.562			-3.652
230900.000			-25.562			-3.652
231001.000			-25.563			-3.652
231100.000			-25.563			-3.652
231200.000			-25.562			-3.652
231301.000			-25.560			-3.651
231400.000			-25.560			-3.651
231501.000			-25.560			-3.651
231602.000			-25.560			-3.651
231701.000			-25.561			-3.652
231800.000			-25.560			-3.651
231901.000			-25.560			-3.651
232000.000			-25.560			-3.651
232100.000			-25.559			-3.651
232201.000			-25.558			-3.651
232300.000			-25.558			-3.651
232400.000			-25.559			-3.651
232502.000			-25.559			-3.651
232601.000			-25.559			-3.651
232700.000			-25.558			-3.651
232801.000			-25.558			-3.651
232900.000			-25.557			-3.651
233000.000			-25.556			-3.651
233101.000			-25.556			-3.651
233200.000			-25.556			-3.651
233300.000			-25.556			-3.651
233402.000			-25.555			-3.651
233501.000			-25.555			-3.651
233600.000			-25.556			-3.651
233701.000			-25.555			-3.651
233800.000			-25.554			-3.651
233900.000			-25.555			-3.651
234000.000			-25.554			-3.651
234100.000			-25.554			-3.651
234201.000			-25.553			-3.650
234301.000			-25.554			-3.651
234401.000			-25.552			-3.650
234502.000			-25.552			-3.650
234600.000			-25.553			-3.650
234700.000			-25.552			-3.650
234801.000			-25.552			-3.650
234900.000			-25.552			-3.650
235000.000			-25.551			-3.650
235101.000			-25.550			-3.650
235200.000			-25.549			-3.650
235301.000			-25.550			-3.650
235402.000			-25.550			-3.650
235500.000			-25.550			-3.650
235600.000			-25.549			-3.650
235701.000			-25.549			-3.650
235800.000			-25.549			-3.650
235900.000			-25.548			-3.650
236001.000			-25.548			-3.650
236100.000			-25.548			-3.650
236201.000			-25.548			-3.650
236302.000			-25.548			-3.650
236401.000			-25.547			-3.650
236500.000			-25.547			-3.650
236601.000			-25.546			-3.649
236700.000			-25.546			-3.649
236800.000			-25.547			-3.650
236901.000			-25.546			-3.649
237000.000			-25.546			-3.649
237100.000			-25.546			-3.649
237202.000			-25.545			-3.649
237301.000			-25.544			-3.649
237401.000			-25.545			-3.649
237500.000			-25.545			-3.649
237600.000			-25.545			-3.649
237701.000			-25.545			-3.649
237800.000			-25.544			-3.649
237900.000			-25.542			-3.649
238001.000			-25.543			-3.649
238101.000			-25.542			-3.649
238201.000			-25.542			-3.649
238302.000			-25.542			-3.649
238400.000			-25.542			-3.649
238500.000			-25.542			-3.649
238601.000			-25.541			-3.649
238700.000			-25.542			-3.649
238800.000			-25.541			-3.649
238901.000			-25.541			-3.649
239000.000			-25.540			-3.649
239101.000			-25.540			-3.649
239202.000			-25.539			-3.648
239300.000			-25.539			-3.648
239400.000			-25.539			-3.648
239501.000			-25.539			-3.648
239600.000			-25.539			-3.648
239700.000			-25.539			-3.648
239801.000			-25.539			-3.648
239900.000			-25.539			-3.648
240001.000			-25.539			-3.648
240102.000			-25.538			-3.648
240201.000			-25.537			-3.648
240300.000			-25.537			-3.648
240400.000			-25.536			-3.648
240500.000			-25.537			-3.648
240601.000			-25.537			-3.648
240700.000			-25.535			-3.648
240800.000			-25.535			-3.648
240901.000			-25.535			-3.648
241001.000			-25.535			-3.648
241101.000			-25.536			-3.648
241201.000			-25.535			-3.648
241300.000			-25.534			-3.648
241400.000			-25.534			-3.648
241501.000			-25.533			-3.648
241600.000			-25.534			-3.648
241700.000			-25.533			-3.648
241801.000			-25.534			-3.648
241901.000			-25.534			-3.648
242001.000			-25.533			-3.648
242101.000			-25.533			-3.648
242200.000			-25.533			-3.648
242300.000			-25.532			-3.647
242401.000			-25.532			-3.647
242500.000			-25.532			-3.647
242600.000			-25.531			-3.647
242701.000			-25.531			-3.647
242801.000			-25.530			-3.647
242901.000			-25.531			-3.647
243001.000			-25.529			-3.647
243100.000			-25.528			-3.647
243200.000			-25.529			-3.647
243301.000			-25.530			-3.647
243400.000			-25.529			-3.647
243500.000			-25.529			-3.647
243600.000			-25.529			-3.647
243700.000			-25.528			-3.647
243802.000			-25.528			-3.647
243901.000			-25.528			-3.647
244000.000			-25.526			-3.647
244101.000			-25.527			-3.647
244200.000			-25.527			-3.647
244300.000			-25.527			-3.647
244401.000			-25.527			-3.647
244500.000			-25.525			-3.646
244600.000			-25.525			-3.646
244702.000			-25.526			-3.647
244801.000			-25.525			-3.646
244900.000			-25.525			-3.646
245001.000			-25.525			-3.646
245100.000			-25.525			-3.646
245200.000			-25.524			-3.646
245301.000			-25.524			-3.646
245400.000			-25.523			-3.646
245500.000			-25.523			-3.646
245602.000			-25.523			-3.646
245701.000			-25.523			-3.646
245801.000			-25.523			-3.646
245901.000			-25.522			-3.646
246000.000			-25.523			-3.646
246100.000			-25.522			-3.646
246201.000			-25.522			-3.646
246300.000			-25.521			-3.646
246400.000			-25.521			-3.646
246502.000			-25.521			-3.646
246601.000			-25.520			-3.646
246702.000			-25.519			-3.646
246800.000			-25.520			-3.646
246900.000			-25.521			-3.646
247001.000			-25.519			-3.646
247100.000			-25.519			-3.646
247200.000			-25.519			-3.646
247301.000			-25.518			-3.645
247400.000			-25.518			-3.645
247501.000			-25.518			-3.645
247602.000			-25.518			-3.645
247701.000			-25.518			-3.645
247800.000			-25.517			-3.645
247901.000			-25.517			-3.645
248000.000			-25.516			-3.645
248100.000			-25.517			-3.645
248201.000			-25.517			-3.645
248300.000			-25.516			-3.645
248400.000			-25.515			-3.645
248502.000			-25.516			-3.645
248601.000			-25.517			-3.645
248700.000			-25.516			-3.645
248801.000			-25.515			-3.645
248900.000			-25.514			-3.645
249000.000			-25.513			-3.645
249101.000			-25.513			-3.645
249200.000			-25.514			-3.645
249300.000			-25.514			-3.645
249402.000			-25.513			-3.645
249501.000			-25.513			-3.645
249601.000			-25.512			-3.645
249701.000			-25.512			-3.645
249800.000			-25.512			-3.645
249900.000			-25.512			-3.645
250000.000			-25.512			-3.645
250100.000			-25.512			-3.645
250201.000			-25.510			-3.644
250301.000			-25.511			-3.644
250401.000			-25.510			-3.644
250502.000			-25.510			-3.644
250600.000			-25.511			-3.644
250700.000			-25.510			-3.644
250801.000			-25.509			-3.644
250900.000			-25.510			-3.644
251000.000			-25.510			-3.644
251101.000			-25.508			-3.644
251201.000			-25.508			-3.644
251301.000			-25.509			-3.644
251402.000			-25.509			-3.644
251500.000			-25.508			-3.644
251600.000			-25.507			-3.644
251701.000			-25.506			-3.644
251800.000			-25.507			-3.644
251900.000			-25.506			-3.644
252001.000			-25.506			-3.644
252101.000			-25.506			-3.644
252201.000			-25.507			-3.644
252302.000			-25.507			-3.644
252400.000			-25.506			-3.644
252500.000			-25.504			-3.643
252601.000			-25.505			-3.644
252700.000			-25.505			-3.644
252800.000			-25.505			-3.644
252901.000			-25.504			-3.643
253000.000			-25.504			-3.643
253102.000			-25.503			-3.643
253201.000			-25.503			-3.643
253300.000			-25.503			-3.643
253401.000			-25.502			-3.643
253500.000			-25.502			-3.643
253600.000			-25.502			-3.643
253701.000			-25.502			-3.643
253800.000			-25.501			-3.643
253900.000			-25.501			-3.643
254002.000			-25.503			-3.643
254101.000			-25.502			-3.643
254201.000			-25.502			-3.643
254301.000			-25.501			-3.643
254400.000			-25.501			-3.643
254500.000			-25.501			-3.643
254601.000			-25.500			-3.643
254700.000			-25.500			-3.643
254800.000			-25.499			-3.643
254902.000			-25.500			-3.643
255001.000			-25.500			-3.643
255101.000			-25.498			-3.643
255201.000			-25.498			-3.643
255300.000			-25.498			-3.643
255400.000			-25.499			-3.643
255501.000			-25.498			-3.643
255600.000			-25.498			-3.643
255700.000			-25.497			-3.642
255801.000			-25.497			-3.642
255901.000			-25.496			-3.642
256001.000			-25.497			-3.642
256102.000			-25.497			-3.642
256200.000			-25.495			-3.642
256300.000			-25.495			-3.642
256400.000			-25.495			-3.642
256500.000			-25.494			-3.642
256601.000			-25.495			-3.642
256700.000			-25.495			-3.642
256800.000			-25.495			-3.642
256902.000			-25.494			-3.642
257001.000			-25.494			-3.642
257101.000			-25.494			-3.642
257201.000			-25.494			-3.642
257300.000			-25.494			-3.642
257400.000			-25.493			-3.642
257501.000			-25.493			-3.642
257600.000			-25.492			-3.642
257700.000			-25.492			-3.642
257801.000			-25.491			-3.642
257901.000			-25.492			-3.642
258001.000			-25.492			-3.642
258101.000			-25.492			-3.642
258200.000			-25.492			-3.642
258300.000			-25.491			-3.642
258401.000			-25.491			-3.642
258500.000			-25.490			-3.641
258600.000			-25.490			-3.641
258701.000			-25.490			-3.641
258800.000			-25.489			-3.641
258901.000			-25.490			-3.641
259002.000			-25.489			-3.641
259101.000			-25.489			-3.641
259200.000			-25.488			-3.641
259301.000			-25.488			-3.641
259400.000			-25.488			-3.641
259500.000			-25.487			-3.641
259600.000			-25.487			-3.641
259700.000			-25.487			-3.641
259801.000			-25.487			-3.641
259901.000			-25.486			-3.641
260001.000			-25.486			-3.641
260101.000			-25.485			-3.641
260200.000			-25.486			-3.641
260300.000			-25.486			-3.641
260401.000			-25.486			-3.641
260500.000			-25.485			-3.641
260600.000			-25.486			-3.641
260701.000			-25.484			-3.641
260801.000			-25.484			-3.641
260901.000			-25.484			-3.641
261002.000			-25.484			-3.641
261100.000			-25.484			-3.641
261200.000			-25.485			-3.641
261301.000			-25.484			-3.641
261400.000			-25.482			-3.640
261500.000			-25.483			-3.640
261601.000			-25.484			-3.641
261700.000			-25.482			-3.640
261801.000			-25.482			-3.640
261902.000			-25.482			-3.640
262001.000			-25.482			-3.640
262100.000			-25.482			-3.640
262201.000			-25.482			-3.640
262300.000			-25.481			-3.640
262400.000			-25.481			-3.640
262501.000			-25.482			-3.640
262600.000			-25.481			-3.640
262700.000			-25.480			-3.640
262802.000			-25.480			-3.640
262901.000			-25.480			-3.640
263001.000			-25.480			-3.640
263100.000			-25.480			-3.640
263200.000			-25.479			-3.640
263301.000			-25.478			-3.640
263400.000			-25.478			-3.640
263500.000			-25.480			-3.640
263601.000			-25.479			-3.640
263701.000			-25.478			-3.640
263801.000			-25.477			-3.640
263902.000			-25.477			-3.640
264000.000			-25.477			-3.640
264100.000			-25.477			-3.640
264201.000			-25.476			-3.639
264300.000			-25.475			-3.639
264400.000			-25.475			-3.639
264501.000			-25.476			-3.639
264600.000			-25.476			-3.639
264701.000			-25.474			-3.639
264802.000			-25.474			-3.639
264901.000			-25.475			-3.639
265000.000			-25.474			-3.639
265101.000			-25.474			-3.639
265200.000			-25.473			-3.639
265300.000			-25.473			-3.639
265401.000			-25.472			-3.639
265500.000			-25.473			-3.639
265600.000			-25.473			-3.639
265702.000			-25.472			-3.639
265801.000			-25.473			-3.639
265900.000			-25.473			-3.639
266000.000			-25.473			-3.639
266100.000			-25.473			-3.639
266201.000			-25.472			-3.639
266300.000			-25.472			-3.639
266400.000			-25.471			-3.639
266501.000			-25.471			-3.639
266601.000			-25.470			-3.639
266701.000			-25.470			-3.639
266802.000			-25.470			-3.639
266900.000			-25.470			-3.639
267000.000			-25.470			-3.639
267101.000			-25.469			-3.638
267200.000			-25.469			-3.638
267300.000			-25.468			-3.638
267401.000			-25.469			-3.638
267500.000			-25.468			-3.638
267601.000			-25.468			-3.638
267702.000			-25.468			-3.638
267800.000			-25.468			-3.638
267900.000			-25.467			-3.638
268001.000			-25.467			-3.638
268100.000			-25.467			-3.638
268200.000			-25.466			-3.638
268301.000			-25.467			-3.638
268400.000			-25.467			-3.638
268500.000			-25.466			-3.638
268602.000			-25.465			-3.638
268701.000			-25.466			-3.638
268800.000			-25.466			-3.638
268901.000			-25.466			-3.638
269000.000			-25.465			-3.638
269100.000			-25.463			-3.638
269200.000			-25.464			-3.638
269300.000			-25.464			-3.638
269401.000			-25.463			-3.638
269501.000			-25.464			-3.638
269601.000			-25.464			-3.638
269702.000			-25.464			-3.638
269800.000			-25.464			-3.638
269900.000			-25.463			-3.638
270001.000			-25.463			-3.638
270100.000			-25.462			-3.637
270200.000			-25.462			-3.637
270301.000			-25.463			-3.638
270400.000			-25.462			-3.637
270501.000			-25.461			-3.637
270602.000			-25.460			-3.637
270700.000			-25.460			-3.637
270800.000			-25.461			-3.637
270901.000			-25.460			-3.637
271000.000			-25.460			-3.637
271100.000			-25.460			-3.637
271201.000			-25.459			-3.637
271300.000			-25.459			-3.637
271401.000			-25.459			-3.637
271502.000			-25.458			-3.637
271601.000			-25.459			-3.637
271700.000			-25.459			-3.637
271801.000			-25.458			-3.637
271900.000			-25.458			-3.637
272000.000			-25.458			-3.637
272101.000			-25.457			-3.637
272200.000			-25.457			-3.637
272300.000			-25.456			-3.637
272402.000			-25.457			-3.637
272501.000			-25.457			-3.637
272601.000			-25.456			-3.637
272700.000			-25.456			-3.637
272800.000			-25.456			-3.637
272901.000			-25.456			-3.637
273000.000			-25.456			-3.637
273100.000			-25.455			-3.636
273201.000			-25.455			-3.636
273301.000			-25.454			-3.636
273401.000			-25.454			-3.636
273502.000			-25.453			-3.636
273600.000			-25.453			-3.636
273700.000			-25.454			-3.636
273801.000			-25.455			-3.636
273900.000			-25.454			-3.636
274000.000			-25.453			-3.636
274101.000			-25.452			-3.636
274200.000			-25.452			-3.636
274301.000			-25.452			-3.636
274402.000			-25.451			-3.636
274500.000			-25.452			-3.636
274600.000			-25.452			-3.636
274701.000			-25.451			-3.636
274800.000			-25.451			-3.636
274900.000			-25.450			-3.636
275001.000			-25.450			-3.636
275100.000			-25.451			-3.636
275201.000			-25.450			-3.636
275302.000			-25.450			-3.636
275401.000			-25.450			-3.636
275500.000			-25.449			-3.636
275600.000			-25.450			-3.636
275700.000			-25.448			-3.635
275801.000			-25.449			-3.636
275900.000			-25.450			-3.636
276000.000			-25.449			-3.636
276101.000			-25.449			-3.636
276201.000			-25.448			-3.635
276301.000			-25.448			-3.635
276401.000			-25.447			-3.635
276500.000			-25.447			-3.635
276600.000			-25.447			-3.635
276701.000			-25.447			-3.635
276800.000			-25.447			-3.635
276900.000			-25.447			-3.635
277001.000			-25.447			-3.635
277101.000			-25.447			-3.635
277201.000			-25.445			-3.635
277302.000			-25.446			-3.635
277400.000			-25.447			-3.635
277500.000			-25.447			-3.635
277601.000			-25.446			-3.635
277700.000			-25.445			-3.635
277800.000			-25.445			-3.635
277901.000			-25.444			-3.635
278000.000			-25.445			-3.635
278101.000			-25.443			-3.635
278202.000			-25.443			-3.635
278301.000			-25.444			-3.635
278400.000			-25.443			-3.635
278501.000			-25.443			-3.635
278600.000			-25.443			-3.635
278700.000			-25.443			-3.635
278800.000			-25.443			-3.635
278900.000			-25.443			-3.635
279001.000			-25.443			-3.635
279101.000			-25.442			-3.635
279201.000			-25.442			-3.635
279301.000			-25.441			-3.634
279400.000			-25.441			-3.634
279500.000			-25.441			-3.634
279601.000			-25.441			-3.634
279700.000			-25.441			-3.634
279800.000			-25.440			-3.634
279901.000			-25.440			-3.634
280001.000			-25.440			-3.634
280101.000			-25.440			-3.634
280201.000			-25.439			-3.634
280300.000			-25.439			-3.634
280400.000			-25.439			-3.634
280501.000			-25.439			-3.634
280600.000			-25.439			-3.634
280700.000			-25.438			-3.634
280801.000			-25.438			-3.634
280901.000			-25.438			-3.634
281001.000			-25.436			-3.634
281102.000			-25.436			-3.634
281200.000			-25.437			-3.634
281300.000			-25.437			-3.634
281401.000			-25.436			-3.634
281500.000			-25.437			-3.634
281600.000			-25.436			-3.634
281701.000			-25.436			-3.634
281800.000			-25.435			-3.634
281902.000			-25.435			-3.634
282001.000			-25.435			-3.634
282100.000			-25.434			-3.633
282201.000			-25.434			-3.633
282300.000			-25.434			-3.633
282400.000			-25.433			-3.633
282501.000			-25.433			-3.633
282600.000			-25.433			-3.633
282700.000			-25.433			-3.633
282802.000			-25.432			-3.633
282901.000			-25.432			-3.633
283001.000			-25.433			-3.633
283101.000			-25.433			-3.633
283200.000			-25.432			-3.633
283300.000			-25.431			-3.633
283401.000			-25.431			-3.633
283500.000			-25.431			-3.633
283600.000			-25.432			-3.633
283701.000			-25.431			-3.633
283801.000			-25.430			-3.633
283901.000			-25.430			-3.633
284001.000			-25.431			-3.633
284100.000			-25.430			-3.633
284200.000			-25.429			-3.633
284301.000			-25.430			-3.633
284400.000			-25.429			-3.633
284500.000			-25.430			-3.633
284601.000			-25.430			-3.633
284701.000			-25.428			-3.633
284801.000			-25.429			-3.633
284901.000			-25.429			-3.633
285000.000			-25.428			-3.633
285100.000			-25.428			-3.633
285200.000			-25.428			-3.633
285300.000			-25.428			-3.633
285401.000			-25.427			-3.632
285500.000			-25.427			-3.632
285600.000			-25.427			-3.632
285702.000			-25.426			-3.632
285801.000			-25.426			-3.632
285900.000			-25.425			-3.632
286001.000			-25.424			-3.632
286100.000			-25.425			-3.632
286200.000			-25.425			-3.632
286301.000			-25.424			-3.632
286400.000			-25.424			-3.632
286500.000			-25.424			-3.632
286602.000			-25.424			-3.632
286701.000			-25.424			-3.632
286800.000			-25.424			-3.632
286901.000			-25.424			-3.632
287000.000			-25.424			-3.632
287100.000			-25.424			-3.632
287201.000			-25.423			-3.632
287300.000			-25.422			-3.632
287400.000			-25.422			-3.632
287502.000			-25.422			-3.632
287601.000			-25.422			-3.632
287701.000			-25.422			-3.632
287801.000			-25.421			-3.632
287900.000			-25.421			-3.632
288000.000			-25.421			-3.632
288101.000			-25.420			-3.631
288200.000			-25.420			-3.631
288300.000			-25.420			-3.631
288400.000			-25.419			-3.631
288501.000			-25.420			-3.631
288602.000			-25.419			-3.631
288700.000			-25.419			-3.631
288800.000			-25.419			-3.631
288901.000			-25.419			-3.631
289000.000			-25.418			-3.631
289100.000			-25.419			-3.631
289201.000			-25.419			-3.631
289300.000			-25.419			-3.631
289400.000			-25.418			-3.631
289502.000			-25.418			-3.631
289601.000			-25.418			-3.631
289700.000			-25.417			-3.631
289801.000			-25.417			-3.631
289900.000			-25.416			-3.631
290000.000			-25.417			-3.631
290101.000			-25.417			-3.631
290200.000			-25.417			-3.631
290300.000			-25.417			-3.631
290402.000			-25.416			-3.631
290501.000			-25.415			-3.631
290600.000			-25.414			-3.631
290701.000			-25.415			-3.631
290800.000			-25.414			-3.631
290900.000			-25.414			-3.631
291001.000			-25.415			-3.631
291100.000			-25.414			-3.631
291200.000			-25.415			-3.631
291302.000			-25.414			-3.631
291401.000			-25.414			-3.631
291502.000			-25.413			-3.630
291600.000			-25.413			-3.630
291700.000			-25.413			-3.630
291801.000			-25.414			-3.631
291900.000			-25.413			-3.630
292000.000			-25.413			-3.630
292101.000			-25.412			-3.630
292201.000			-25.412			-3.630
292301.000			-25.412			-3.630
292402.000			-25.412			-3.630
292500.000			-25.411			-3.630
292600.000			-25.411			-3.630
292701.000			-25.411			-3.630
292800.000			-25.411			-3.630
292900.000			-25.410			-3.630
293001.000			-25.410			-3.630
293101.000			-25.410			-3.630
293201.000			-25.410			-3.630
293302.000			-25.410			-3.630
293400.000			-25.409			-3.630
293500.000			-25.410			-3.630
293601.000			-25.409			-3.630
293700.000			-25.408			-3.630
293800.000			-25.408			-3.630
293901.000			-25.408			-3.630
294000.000			-25.409			-3.630
294101.000			-25.409			-3.630
294202.000			-25.407			-3.630
294300.000			-25.408			-3.630
294400.000			-25.408			-3.630
294501.000			-25.407			-3.630
294600.000			-25.407			-3.630
294700.000			-25.406			-3.629
294800.000			-25.406			-3.629
294900.000			-25.406			-3.629
295002.000			-25.406			-3.629
295101.000			-25.406			-3.629
295201.000			-25.405			-3.629
295301.000			-25.405			-3.629
295400.000			-25.404			-3.629
295500.000			-25.405			-3.629
295601.000			-25.405			-3.629
295700.000			-25.404			-3.629
295800.000			-25.403			-3.629
295901.000			-25.403			-3.629
296001.000			-25.403			-3.629
296101.000			-25.403			-3.629
296201.000			-25.404			-3.629
296300.000			-25.403			-3.629
296400.000			-25.403			-3.629
296501.000			-25.404			-3.629
296600.000			-25.403			-3.629
296700.000			-25.403			-3.629
296801.000			-25.402			-3.629
296901.000			-25.401			-3.629
297001.000			-25.402			-3.629
297101.000			-25.401			-3.629
297200.000			-25.401			-3.629
297300.000			-25.400			-3.629
297401.000			-25.401			-3.629
297500.000			-25.402			-3.629
297600.000			-25.402			-3.629
297701.000			-25.401			-3.629
297801.000			-25.400			-3.629
297902.000			-25.400			-3.629
298001.000			-25.399			-3.628
298100.000			-25.399			-3.628
298201.000			-25.399			-3.628
298300.000			-25.399			-3.628
298400.000			-25.398			-3.628
298501.000			-25.399			-3.628
298600.000			-25.399			-3.628
298700.000			-25.399			-3.628
298801.000			-25.399			-3.628
298901.000			-25.398			-3.628
299001.000			-25.397			-3.628
299102.000			-25.397			-3.628
299200.000			-25.397			-3.628
299300.000			-25.395			-3.628
299401.000			-25.396			-3.628
299500.000			-25.396			-3.628
299600.000			-25.396			-3.628
299701.000			-25.396			-3.628
299800.000			-25.396			-3.628
299901.000			-25.395			-3.628
