# Acquired on 21/12/2023 12:58:08 
# SPIDER: Creep_9mm_07714532B-1
# CREEP MEASUREMENT

# time [ms]		force [N]		stiffness [N/mm]
0.000			-46.692			-5.188
100.000			-51.233			-5.693
201.000			-51.467			-5.719
301.000			-51.089			-5.677
400.000			-50.779			-5.642
500.000			-50.541			-5.616
601.000			-50.341			-5.593
700.000			-50.168			-5.574
801.000			-49.882			-5.542
901.000			-49.759			-5.529
1001.000			-49.648			-5.516
1101.000			-49.546			-5.505
1200.000			-49.451			-5.495
1300.000			-49.363			-5.485
1401.000			-49.280			-5.476
1500.000			-49.131			-5.459
1601.000			-49.063			-5.451
1702.000			-48.997			-5.444
1800.000			-48.935			-5.437
1900.000			-48.876			-5.431
2001.000			-48.820			-5.424
2100.000			-48.767			-5.419
2200.000			-48.664			-5.407
2301.000			-48.617			-5.402
2401.000			-48.571			-5.397
2501.000			-48.527			-5.392
2601.000			-48.484			-5.387
2700.000			-48.443			-5.383
2800.000			-48.403			-5.378
2901.000			-48.365			-5.374
3000.000			-48.290			-5.366
3100.000			-48.255			-5.362
3202.000			-48.219			-5.358
3301.000			-48.187			-5.354
3400.000			-48.155			-5.351
3501.000			-48.124			-5.347
3600.000			-48.094			-5.344
3700.000			-48.033			-5.337
3801.000			-48.005			-5.334
3900.000			-47.977			-5.331
4002.000			-47.949			-5.328
4101.000			-47.923			-5.325
4200.000			-47.896			-5.322
4301.000			-47.869			-5.319
4400.000			-47.820			-5.313
4500.000			-47.796			-5.311
4601.000			-47.773			-5.308
4700.000			-47.750			-5.306
4801.000			-47.727			-5.303
4902.000			-47.705			-5.301
5000.000			-47.683			-5.298
5100.000			-47.661			-5.296
5201.000			-47.619			-5.291
5300.000			-47.600			-5.289
5400.000			-47.580			-5.287
5501.000			-47.560			-5.284
5601.000			-47.541			-5.282
5701.000			-47.521			-5.280
5801.000			-47.502			-5.278
5900.000			-47.466			-5.274
6000.000			-47.448			-5.272
6101.000			-47.430			-5.270
6200.000			-47.414			-5.268
6301.000			-47.396			-5.266
6402.000			-47.379			-5.264
6500.000			-47.362			-5.262
6600.000			-47.330			-5.259
6701.000			-47.313			-5.257
6800.000			-47.297			-5.255
6900.000			-47.282			-5.254
7001.000			-47.267			-5.252
7101.000			-47.253			-5.250
7202.000			-47.237			-5.249
7300.000			-47.222			-5.247
7400.000			-47.192			-5.244
7501.000			-47.178			-5.242
7600.000			-47.164			-5.240
7700.000			-47.151			-5.239
7801.000			-47.138			-5.238
7901.000			-47.124			-5.236
8001.000			-47.109			-5.234
8101.000			-47.083			-5.231
8200.000			-47.071			-5.230
8300.000			-47.058			-5.229
8401.000			-47.044			-5.227
8500.000			-47.032			-5.226
8601.000			-47.020			-5.224
8702.000			-47.008			-5.223
8801.000			-46.983			-5.220
8900.000			-46.971			-5.219
9001.000			-46.959			-5.218
9100.000			-46.948			-5.216
9200.000			-46.937			-5.215
9301.000			-46.925			-5.214
9401.000			-46.913			-5.213
9501.000			-46.902			-5.211
9601.000			-46.879			-5.209
9700.000			-46.868			-5.208
9800.000			-46.858			-5.206
9901.000			-46.847			-5.205
10000.000			-46.836			-5.204
10100.000			-46.826			-5.203
10202.000			-46.815			-5.202
10301.000			-46.795			-5.199
10402.000			-46.786			-5.198
10500.000			-46.774			-5.197
10600.000			-46.765			-5.196
10701.000			-46.756			-5.195
10800.000			-46.746			-5.194
10900.000			-46.736			-5.193
11001.000			-46.716			-5.191
11101.000			-46.707			-5.190
11201.000			-46.697			-5.189
11301.000			-46.688			-5.188
11400.000			-46.679			-5.187
11500.000			-46.668			-5.185
11601.000			-46.660			-5.184
11700.000			-46.652			-5.184
11800.000			-46.633			-5.181
11902.000			-46.624			-5.180
12001.000			-46.615			-5.179
12100.000			-46.607			-5.179
12201.000			-46.599			-5.178
12300.000			-46.591			-5.177
12400.000			-46.581			-5.176
12501.000			-46.563			-5.174
12600.000			-46.555			-5.173
12701.000			-46.547			-5.172
12802.000			-46.539			-5.171
12900.000			-46.531			-5.170
13000.000			-46.523			-5.169
13101.000			-46.515			-5.168
13200.000			-46.498			-5.166
13300.000			-46.491			-5.166
13401.000			-46.483			-5.165
13501.000			-46.475			-5.164
13602.000			-46.468			-5.163
13700.000			-46.459			-5.162
13800.000			-46.451			-5.161
13901.000			-46.437			-5.160
14000.000			-46.430			-5.159
14100.000			-46.422			-5.158
14201.000			-46.414			-5.157
14301.000			-46.408			-5.156
14401.000			-46.401			-5.156
14501.000			-46.394			-5.155
14600.000			-46.387			-5.154
14700.000			-46.372			-5.152
14801.000			-46.364			-5.152
14900.000			-46.358			-5.151
15000.000			-46.351			-5.150
15102.000			-46.344			-5.149
15201.000			-46.337			-5.149
15300.000			-46.330			-5.148
15401.000			-46.317			-5.146
15500.000			-46.310			-5.146
15600.000			-46.303			-5.145
15701.000			-46.296			-5.144
15800.000			-46.289			-5.143
15901.000			-46.283			-5.143
16002.000			-46.277			-5.142
16100.000			-46.263			-5.140
16200.000			-46.257			-5.140
16301.000			-46.251			-5.139
16400.000			-46.243			-5.138
16500.000			-46.237			-5.137
16601.000			-46.232			-5.137
16701.000			-46.227			-5.136
16802.000			-46.220			-5.136
16900.000			-46.207			-5.134
17000.000			-46.200			-5.133
17101.000			-46.194			-5.133
17200.000			-46.188			-5.132
17300.000			-46.181			-5.131
17401.000			-46.176			-5.131
17501.000			-46.171			-5.130
17601.000			-46.157			-5.129
17701.000			-46.152			-5.128
17800.000			-46.146			-5.127
17900.000			-46.141			-5.127
18001.000			-46.135			-5.126
18100.000			-46.129			-5.125
18200.000			-46.122			-5.125
18302.000			-46.111			-5.123
18401.000			-46.106			-5.123
18500.000			-46.100			-5.122
18601.000			-46.095			-5.122
18700.000			-46.090			-5.121
18800.000			-46.085			-5.121
18901.000			-46.079			-5.120
19000.000			-46.073			-5.119
19101.000			-46.062			-5.118
19202.000			-46.056			-5.117
19300.000			-46.052			-5.117
19400.000			-46.045			-5.116
19501.000			-46.040			-5.116
19600.000			-46.036			-5.115
19700.000			-46.030			-5.114
19801.000			-46.019			-5.113
19901.000			-46.015			-5.113
20002.000			-46.009			-5.112
20100.000			-46.004			-5.112
20200.000			-45.999			-5.111
20301.000			-45.994			-5.110
20400.000			-45.989			-5.110
20500.000			-45.978			-5.109
20601.000			-45.973			-5.108
20701.000			-45.968			-5.108
20801.000			-45.963			-5.107
20902.000			-45.958			-5.106
21000.000			-45.953			-5.106
21100.000			-45.948			-5.105
21201.000			-45.942			-5.105
21300.000			-45.933			-5.104
21400.000			-45.929			-5.103
21501.000			-45.923			-5.103
21601.000			-45.918			-5.102
21701.000			-45.914			-5.102
21801.000			-45.909			-5.101
21900.000			-45.904			-5.100
22000.000			-45.896			-5.100
22101.000			-45.892			-5.099
22200.000			-45.887			-5.099
22300.000			-45.882			-5.098
22402.000			-45.877			-5.097
22501.000			-45.873			-5.097
22600.000			-45.868			-5.096
22701.000			-45.859			-5.095
22800.000			-45.855			-5.095
22900.000			-45.849			-5.094
23001.000			-45.845			-5.094
23100.000			-45.841			-5.093
23202.000			-45.836			-5.093
23301.000			-45.832			-5.092
23400.000			-45.828			-5.092
23501.000			-45.819			-5.091
23600.000			-45.814			-5.090
23700.000			-45.810			-5.090
23801.000			-45.806			-5.090
23900.000			-45.801			-5.089
24001.000			-45.797			-5.089
24102.000			-45.793			-5.088
24200.000			-45.784			-5.087
24300.000			-45.779			-5.087
24401.000			-45.774			-5.086
24500.000			-45.771			-5.086
24600.000			-45.767			-5.085
24701.000			-45.762			-5.085
24801.000			-45.759			-5.084
24901.000			-45.750			-5.083
25001.000			-45.747			-5.083
25100.000			-45.743			-5.083
25200.000			-45.738			-5.082
25301.000			-45.733			-5.081
25400.000			-45.730			-5.081
25500.000			-45.725			-5.081
25601.000			-45.721			-5.080
25701.000			-45.712			-5.079
25801.000			-45.708			-5.079
25901.000			-45.703			-5.078
26000.000			-45.700			-5.078
26100.000			-45.695			-5.077
26201.000			-45.693			-5.077
26300.000			-45.689			-5.077
26401.000			-45.681			-5.076
26501.000			-45.677			-5.075
26601.000			-45.673			-5.075
26701.000			-45.669			-5.074
26800.000			-45.664			-5.074
26900.000			-45.660			-5.073
27001.000			-45.656			-5.073
27100.000			-45.649			-5.072
27200.000			-45.646			-5.072
27302.000			-45.642			-5.071
27401.000			-45.638			-5.071
27501.000			-45.635			-5.071
27601.000			-45.631			-5.070
27700.000			-45.627			-5.070
27800.000			-45.618			-5.069
27901.000			-45.616			-5.068
28000.000			-45.612			-5.068
28100.000			-45.608			-5.068
28202.000			-45.605			-5.067
28301.000			-45.601			-5.067
28400.000			-45.598			-5.066
28501.000			-45.594			-5.066
28600.000			-45.587			-5.065
28700.000			-45.584			-5.065
28801.000			-45.581			-5.065
28900.000			-45.577			-5.064
29001.000			-45.574			-5.064
29102.000			-45.569			-5.063
29200.000			-45.565			-5.063
29300.000			-45.558			-5.062
29401.000			-45.555			-5.062
29500.000			-45.552			-5.061
29601.000			-45.548			-5.061
29700.000			-45.546			-5.061
29801.000			-45.541			-5.060
29902.000			-45.538			-5.060
30000.000			-45.531			-5.059
30100.000			-45.528			-5.059
30201.000			-45.524			-5.058
30300.000			-45.520			-5.058
30400.000			-45.517			-5.057
30501.000			-45.513			-5.057
30601.000			-45.510			-5.057
30701.000			-45.507			-5.056
30801.000			-45.500			-5.056
30900.000			-45.496			-5.055
31000.000			-45.494			-5.055
31101.000			-45.491			-5.055
31200.000			-45.488			-5.054
31300.000			-45.483			-5.054
31402.000			-45.480			-5.053
31501.000			-45.473			-5.053
31600.000			-45.471			-5.052
31701.000			-45.467			-5.052
31800.000			-45.463			-5.051
31900.000			-45.461			-5.051
32001.000			-45.457			-5.051
32100.000			-45.453			-5.050
32201.000			-45.448			-5.050
32302.000			-45.445			-5.049
32400.000			-45.441			-5.049
32500.000			-45.438			-5.049
32601.000			-45.436			-5.048
32700.000			-45.433			-5.048
32801.000			-45.429			-5.048
32900.000			-45.426			-5.047
33001.000			-45.420			-5.047
33102.000			-45.417			-5.046
33200.000			-45.413			-5.046
33300.000			-45.411			-5.046
33401.000			-45.408			-5.045
33500.000			-45.405			-5.045
33600.000			-45.402			-5.045
33702.000			-45.396			-5.044
33801.000			-45.393			-5.044
33901.000			-45.390			-5.043
34001.000			-45.387			-5.043
34100.000			-45.383			-5.043
34200.000			-45.380			-5.042
34301.000			-45.377			-5.042
34400.000			-45.371			-5.041
34501.000			-45.369			-5.041
34602.000			-45.365			-5.041
34701.000			-45.362			-5.040
34800.000			-45.359			-5.040
34901.000			-45.356			-5.040
35000.000			-45.353			-5.039
35100.000			-45.350			-5.039
35201.000			-45.344			-5.038
35301.000			-45.341			-5.038
35401.000			-45.338			-5.038
35501.000			-45.335			-5.037
35600.000			-45.334			-5.037
35700.000			-45.330			-5.037
35801.000			-45.326			-5.036
35900.000			-45.321			-5.036
36001.000			-45.318			-5.035
36101.000			-45.314			-5.035
36201.000			-45.313			-5.035
36301.000			-45.310			-5.034
36400.000			-45.307			-5.034
36500.000			-45.304			-5.034
36601.000			-45.299			-5.033
36700.000			-45.296			-5.033
36800.000			-45.293			-5.033
36902.000			-45.291			-5.032
37001.000			-45.288			-5.032
37101.000			-45.284			-5.032
37201.000			-45.282			-5.031
37300.000			-45.278			-5.031
37400.000			-45.274			-5.030
37501.000			-45.271			-5.030
37600.000			-45.269			-5.030
37700.000			-45.265			-5.029
37802.000			-45.262			-5.029
37901.000			-45.260			-5.029
38000.000			-45.257			-5.029
38101.000			-45.252			-5.028
38200.000			-45.250			-5.028
38300.000			-45.247			-5.027
38401.000			-45.244			-5.027
38501.000			-45.241			-5.027
38601.000			-45.238			-5.026
38702.000			-45.236			-5.026
38800.000			-45.231			-5.026
38900.000			-45.228			-5.025
39001.000			-45.225			-5.025
39100.000			-45.223			-5.025
39201.000			-45.221			-5.025
39301.000			-45.218			-5.024
39401.000			-45.215			-5.024
39502.000			-45.213			-5.024
39600.000			-45.207			-5.023
39700.000			-45.204			-5.023
39801.000			-45.203			-5.023
39900.000			-45.199			-5.022
40000.000			-45.196			-5.022
40101.000			-45.194			-5.022
40201.000			-45.191			-5.021
40301.000			-45.187			-5.021
40401.000			-45.185			-5.021
40500.000			-45.182			-5.020
40600.000			-45.178			-5.020
40701.000			-45.176			-5.020
40800.000			-45.174			-5.019
40900.000			-45.172			-5.019
41002.000			-45.166			-5.018
41101.000			-45.163			-5.018
41200.000			-45.161			-5.018
41301.000			-45.159			-5.018
41400.000			-45.157			-5.017
41500.000			-45.155			-5.017
41601.000			-45.152			-5.017
41701.000			-45.146			-5.016
41801.000			-45.145			-5.016
41901.000			-45.143			-5.016
42000.000			-45.140			-5.016
42100.000			-45.137			-5.015
42201.000			-45.134			-5.015
42300.000			-45.132			-5.015
42401.000			-45.129			-5.014
42501.000			-45.125			-5.014
42601.000			-45.122			-5.014
42701.000			-45.119			-5.013
42800.000			-45.118			-5.013
42900.000			-45.115			-5.013
43001.000			-45.113			-5.013
43100.000			-45.110			-5.012
43200.000			-45.105			-5.012
43302.000			-45.102			-5.011
43401.000			-45.100			-5.011
43500.000			-45.097			-5.011
43601.000			-45.095			-5.011
43700.000			-45.093			-5.010
43800.000			-45.091			-5.010
43901.000			-45.085			-5.009
44000.000			-45.083			-5.009
44101.000			-45.082			-5.009
44202.000			-45.079			-5.009
44300.000			-45.077			-5.009
44400.000			-45.076			-5.008
44501.000			-45.073			-5.008
44600.000			-45.070			-5.008
44700.000			-45.066			-5.007
44801.000			-45.063			-5.007
44901.000			-45.061			-5.007
45001.000			-45.059			-5.007
45101.000			-45.057			-5.006
45200.000			-45.054			-5.006
45300.000			-45.052			-5.006
45401.000			-45.047			-5.005
45500.000			-45.045			-5.005
45601.000			-45.043			-5.005
45701.000			-45.041			-5.005
45801.000			-45.039			-5.004
45901.000			-45.037			-5.004
46000.000			-45.034			-5.004
46100.000			-45.031			-5.003
46201.000			-45.028			-5.003
46300.000			-45.026			-5.003
46401.000			-45.023			-5.003
46502.000			-45.021			-5.002
46601.000			-45.019			-5.002
46700.000			-45.017			-5.002
46801.000			-45.015			-5.002
46900.000			-45.010			-5.001
47000.000			-45.008			-5.001
47101.000			-45.006			-5.001
47201.000			-45.005			-5.001
47301.000			-45.003			-5.000
47401.000			-45.000			-5.000
47500.000			-44.997			-5.000
47600.000			-44.992			-4.999
47701.000			-44.990			-4.999
47800.000			-44.989			-4.999
47900.000			-44.987			-4.999
48001.000			-44.984			-4.998
48101.000			-44.983			-4.998
48201.000			-44.980			-4.998
48301.000			-44.977			-4.997
48400.000			-44.974			-4.997
48500.000			-44.971			-4.997
48601.000			-44.969			-4.997
48700.000			-44.967			-4.996
48801.000			-44.964			-4.996
48901.000			-44.963			-4.996
49001.000			-44.962			-4.996
49101.000			-44.958			-4.995
49200.000			-44.955			-4.995
49300.000			-44.953			-4.995
49401.000			-44.951			-4.995
49500.000			-44.949			-4.994
49600.000			-44.946			-4.994
49701.000			-44.944			-4.994
49801.000			-44.942			-4.994
49901.000			-44.938			-4.993
50001.000			-44.936			-4.993
50100.000			-44.935			-4.993
50200.000			-44.933			-4.993
50301.000			-44.931			-4.992
50400.000			-44.929			-4.992
50500.000			-44.925			-4.992
50602.000			-44.923			-4.991
50701.000			-44.920			-4.991
50800.000			-44.918			-4.991
50901.000			-44.916			-4.991
51000.000			-44.914			-4.990
51100.000			-44.912			-4.990
51201.000			-44.910			-4.990
51300.000			-44.907			-4.990
51401.000			-44.905			-4.989
51502.000			-44.902			-4.989
51600.000			-44.900			-4.989
51700.000			-44.899			-4.989
51801.000			-44.897			-4.989
51900.000			-44.895			-4.988
52001.000			-44.891			-4.988
52100.000			-44.889			-4.988
52201.000			-44.887			-4.987
52302.000			-44.886			-4.987
52400.000			-44.883			-4.987
52500.000			-44.880			-4.987
52601.000			-44.879			-4.987
52700.000			-44.874			-4.986
52800.000			-44.873			-4.986
52901.000			-44.871			-4.986
53001.000			-44.868			-4.985
53101.000			-44.868			-4.985
53201.000			-44.866			-4.985
53300.000			-44.863			-4.985
53400.000			-44.861			-4.985
53501.000			-44.858			-4.984
53600.000			-44.857			-4.984
53700.000			-44.854			-4.984
53802.000			-44.853			-4.984
53901.000			-44.851			-4.983
54000.000			-44.848			-4.983
54101.000			-44.847			-4.983
54200.000			-44.843			-4.983
54300.000			-44.841			-4.982
54401.000			-44.838			-4.982
54500.000			-44.836			-4.982
54601.000			-44.835			-4.982
54702.000			-44.833			-4.981
54800.000			-44.832			-4.981
54900.000			-44.828			-4.981
55001.000			-44.826			-4.981
55100.000			-44.826			-4.981
55201.000			-44.822			-4.980
55300.000			-44.819			-4.980
55400.000			-44.816			-4.980
55502.000			-44.815			-4.979
55601.000			-44.815			-4.979
55700.000			-44.811			-4.979
55801.000			-44.808			-4.979
55900.000			-44.807			-4.979
56000.000			-44.805			-4.978
56101.000			-44.804			-4.978
56201.000			-44.802			-4.978
56301.000			-44.799			-4.978
56402.000			-44.796			-4.977
56500.000			-44.794			-4.977
56600.000			-44.793			-4.977
56701.000			-44.791			-4.977
56800.000			-44.789			-4.977
56900.000			-44.787			-4.976
57001.000			-44.784			-4.976
57101.000			-44.781			-4.976
57201.000			-44.780			-4.976
57301.000			-44.778			-4.975
57400.000			-44.776			-4.975
57500.000			-44.774			-4.975
57601.000			-44.773			-4.975
57700.000			-44.770			-4.974
57800.000			-44.767			-4.974
57902.000			-44.765			-4.974
58001.000			-44.763			-4.974
58100.000			-44.762			-4.974
58201.000			-44.760			-4.973
58300.000			-44.758			-4.973
58401.000			-44.758			-4.973
58500.000			-44.756			-4.973
58600.000			-44.752			-4.972
58702.000			-44.750			-4.972
58801.000			-44.749			-4.972
58900.000			-44.748			-4.972
59001.000			-44.746			-4.972
59100.000			-44.744			-4.972
59200.000			-44.742			-4.971
59301.000			-44.738			-4.971
59400.000			-44.736			-4.971
59500.000			-44.734			-4.970
59602.000			-44.733			-4.970
59701.000			-44.731			-4.970
59800.000			-44.729			-4.970
59901.000			-44.728			-4.970
60000.000			-44.725			-4.969
60100.000			-44.722			-4.969
60201.000			-44.720			-4.969
60300.000			-44.720			-4.969
60401.000			-44.718			-4.969
60502.000			-44.716			-4.968
60600.000			-44.715			-4.968
60700.000			-44.714			-4.968
60801.000			-44.709			-4.968
60900.000			-44.707			-4.967
61000.000			-44.705			-4.967
61101.000			-44.704			-4.967
61201.000			-44.703			-4.967
61301.000			-44.700			-4.967
61401.000			-44.698			-4.966
61500.000			-44.696			-4.966
61601.000			-44.695			-4.966
61700.000			-44.693			-4.966
61800.000			-44.692			-4.966
61901.000			-44.689			-4.965
62001.000			-44.687			-4.965
62101.000			-44.686			-4.965
62201.000			-44.684			-4.965
62300.000			-44.682			-4.965
62400.000			-44.679			-4.964
62501.000			-44.678			-4.964
62600.000			-44.676			-4.964
62700.000			-44.675			-4.964
62802.000			-44.673			-4.964
62901.000			-44.672			-4.964
63000.000			-44.668			-4.963
63101.000			-44.665			-4.963
63200.000			-44.665			-4.963
63300.000			-44.663			-4.963
63401.000			-44.661			-4.962
63500.000			-44.660			-4.962
63601.000			-44.659			-4.962
63702.000			-44.656			-4.962
63800.000			-44.654			-4.962
63900.000			-44.653			-4.961
64001.000			-44.651			-4.961
64100.000			-44.650			-4.961
64200.000			-44.647			-4.961
64301.000			-44.646			-4.961
64401.000			-44.641			-4.960
64501.000			-44.640			-4.960
64601.000			-44.640			-4.960
64700.000			-44.638			-4.960
64801.000			-44.636			-4.960
64900.000			-44.634			-4.959
65000.000			-44.632			-4.959
65101.000			-44.631			-4.959
65200.000			-44.628			-4.959
65301.000			-44.626			-4.958
65402.000			-44.625			-4.958
65500.000			-44.623			-4.958
65600.000			-44.622			-4.958
65701.000			-44.619			-4.958
65800.000			-44.618			-4.958
65900.000			-44.616			-4.957
66001.000			-44.614			-4.957
66101.000			-44.612			-4.957
66201.000			-44.611			-4.957
66301.000			-44.610			-4.957
66400.000			-44.609			-4.957
66500.000			-44.606			-4.956
66601.000			-44.604			-4.956
66700.000			-44.603			-4.956
66800.000			-44.601			-4.956
66902.000			-44.600			-4.956
67001.000			-44.599			-4.955
67100.000			-44.596			-4.955
67201.000			-44.594			-4.955
67300.000			-44.593			-4.955
67400.000			-44.591			-4.955
67501.000			-44.589			-4.954
67600.000			-44.587			-4.954
67701.000			-44.585			-4.954
67802.000			-44.584			-4.954
67901.000			-44.583			-4.954
68001.000			-44.582			-4.954
68100.000			-44.577			-4.953
68200.000			-44.575			-4.953
68301.000			-44.575			-4.953
68400.000			-44.574			-4.953
68500.000			-44.573			-4.953
68602.000			-44.570			-4.952
68701.000			-44.569			-4.952
68800.000			-44.565			-4.952
68901.000			-44.564			-4.952
69000.000			-44.564			-4.952
69100.000			-44.562			-4.951
69201.000			-44.561			-4.951
69300.000			-44.559			-4.951
69401.000			-44.557			-4.951
69502.000			-44.555			-4.951
69600.000			-44.555			-4.951
69700.000			-44.553			-4.950
69801.000			-44.551			-4.950
69900.000			-44.549			-4.950
70000.000			-44.548			-4.950
70101.000			-44.546			-4.950
70201.000			-44.544			-4.949
70301.000			-44.540			-4.949
70402.000			-44.539			-4.949
70500.000			-44.539			-4.949
70600.000			-44.537			-4.949
70701.000			-44.536			-4.948
70800.000			-44.534			-4.948
70900.000			-44.533			-4.948
71001.000			-44.530			-4.948
71101.000			-44.529			-4.948
71202.000			-44.528			-4.948
71300.000			-44.526			-4.947
71400.000			-44.524			-4.947
71501.000			-44.522			-4.947
71600.000			-44.521			-4.947
71700.000			-44.518			-4.946
71801.000			-44.517			-4.946
71901.000			-44.516			-4.946
72001.000			-44.514			-4.946
72101.000			-44.513			-4.946
72200.000			-44.512			-4.946
72300.000			-44.510			-4.946
72401.000			-44.508			-4.945
72500.000			-44.507			-4.945
72600.000			-44.504			-4.945
72702.000			-44.503			-4.945
72801.000			-44.501			-4.945
72900.000			-44.499			-4.944
73001.000			-44.498			-4.944
73100.000			-44.497			-4.944
73200.000			-44.495			-4.944
73301.000			-44.493			-4.944
73400.000			-44.491			-4.943
73501.000			-44.489			-4.943
73602.000			-44.488			-4.943
73700.000			-44.487			-4.943
73800.000			-44.486			-4.943
73901.000			-44.484			-4.943
74000.000			-44.482			-4.942
74100.000			-44.481			-4.942
74201.000			-44.480			-4.942
74301.000			-44.477			-4.942
74402.000			-44.476			-4.942
74501.000			-44.475			-4.942
74600.000			-44.474			-4.942
74701.000			-44.470			-4.941
74800.000			-44.469			-4.941
74900.000			-44.469			-4.941
75001.000			-44.469			-4.941
75100.000			-44.466			-4.941
75201.000			-44.464			-4.940
75302.000			-44.464			-4.940
75400.000			-44.460			-4.940
75500.000			-44.459			-4.940
75601.000			-44.457			-4.940
75700.000			-44.455			-4.939
75800.000			-44.454			-4.939
75901.000			-44.453			-4.939
76001.000			-44.453			-4.939
76101.000			-44.450			-4.939
76201.000			-44.448			-4.939
76300.000			-44.446			-4.938
76400.000			-44.446			-4.938
76501.000			-44.445			-4.938
76600.000			-44.443			-4.938
76700.000			-44.441			-4.938
76801.000			-44.440			-4.938
76901.000			-44.437			-4.937
77001.000			-44.436			-4.937
77101.000			-44.435			-4.937
77200.000			-44.433			-4.937
77300.000			-44.432			-4.937
77401.000			-44.431			-4.937
77500.000			-44.430			-4.937
77601.000			-44.426			-4.936
77701.000			-44.425			-4.936
77801.000			-44.423			-4.936
77901.000			-44.422			-4.936
78000.000			-44.421			-4.936
78100.000			-44.420			-4.936
78201.000			-44.419			-4.935
78300.000			-44.415			-4.935
78400.000			-44.415			-4.935
78502.000			-44.414			-4.935
78601.000			-44.412			-4.935
78700.000			-44.411			-4.935
78801.000			-44.409			-4.934
78900.000			-44.407			-4.934
79000.000			-44.407			-4.934
79101.000			-44.405			-4.934
79200.000			-44.403			-4.934
79301.000			-44.402			-4.934
79402.000			-44.401			-4.933
79500.000			-44.399			-4.933
79600.000			-44.398			-4.933
79701.000			-44.397			-4.933
79800.000			-44.394			-4.933
79900.000			-44.393			-4.933
80001.000			-44.392			-4.932
80101.000			-44.390			-4.932
80201.000			-44.389			-4.932
80301.000			-44.389			-4.932
80400.000			-44.387			-4.932
80500.000			-44.386			-4.932
80601.000			-44.384			-4.932
80700.000			-44.382			-4.931
80801.000			-44.382			-4.931
80901.000			-44.380			-4.931
81001.000			-44.378			-4.931
81102.000			-44.376			-4.931
81200.000			-44.375			-4.931
81300.000			-44.372			-4.930
81401.000			-44.370			-4.930
81500.000			-44.370			-4.930
81600.000			-44.368			-4.930
81701.000			-44.367			-4.930
81801.000			-44.366			-4.930
81901.000			-44.365			-4.929
82001.000			-44.362			-4.929
82100.000			-44.360			-4.929
82200.000			-44.360			-4.929
82301.000			-44.358			-4.929
82400.000			-44.358			-4.929
82500.000			-44.356			-4.928
82602.000			-44.356			-4.928
82701.000			-44.354			-4.928
82800.000			-44.352			-4.928
82901.000			-44.351			-4.928
83000.000			-44.349			-4.928
83100.000			-44.348			-4.928
83201.000			-44.347			-4.927
83300.000			-44.346			-4.927
83401.000			-44.345			-4.927
83502.000			-44.343			-4.927
83600.000			-44.341			-4.927
83700.000			-44.338			-4.926
83801.000			-44.338			-4.926
83900.000			-44.336			-4.926
84001.000			-44.335			-4.926
84100.000			-44.335			-4.926
84201.000			-44.332			-4.926
84302.000			-44.332			-4.926
84401.000			-44.330			-4.926
84500.000			-44.329			-4.925
84601.000			-44.329			-4.925
84700.000			-44.327			-4.925
84800.000			-44.325			-4.925
84901.000			-44.322			-4.925
85000.000			-44.322			-4.925
85101.000			-44.321			-4.925
85202.000			-44.319			-4.924
85300.000			-44.318			-4.924
85400.000			-44.317			-4.924
85501.000			-44.315			-4.924
85600.000			-44.314			-4.924
85700.000			-44.312			-4.924
85801.000			-44.311			-4.923
85901.000			-44.310			-4.923
86001.000			-44.309			-4.923
86101.000			-44.307			-4.923
86200.000			-44.307			-4.923
86300.000			-44.306			-4.923
86401.000			-44.303			-4.923
86500.000			-44.302			-4.922
86600.000			-44.301			-4.922
86702.000			-44.299			-4.922
86801.000			-44.297			-4.922
86900.000			-44.297			-4.922
87001.000			-44.296			-4.922
87100.000			-44.294			-4.922
87201.000			-44.293			-4.921
87300.000			-44.292			-4.921
87400.000			-44.289			-4.921
87502.000			-44.288			-4.921
87601.000			-44.287			-4.921
87701.000			-44.286			-4.921
87801.000			-44.284			-4.920
87900.000			-44.282			-4.920
88000.000			-44.281			-4.920
88101.000			-44.281			-4.920
88200.000			-44.280			-4.920
88300.000			-44.278			-4.920
88402.000			-44.277			-4.920
88501.000			-44.276			-4.920
88600.000			-44.274			-4.919
88701.000			-44.272			-4.919
88800.000			-44.270			-4.919
88900.000			-44.269			-4.919
89001.000			-44.269			-4.919
89100.000			-44.267			-4.919
89201.000			-44.266			-4.918
89302.000			-44.264			-4.918
89400.000			-44.263			-4.918
89500.000			-44.262			-4.918
89601.000			-44.261			-4.918
89700.000			-44.260			-4.918
89800.000			-44.259			-4.918
89901.000			-44.258			-4.918
90000.000			-44.256			-4.917
90101.000			-44.254			-4.917
90202.000			-44.253			-4.917
90300.000			-44.254			-4.917
90401.000			-44.251			-4.917
90500.000			-44.249			-4.917
90600.000			-44.248			-4.916
90701.000			-44.247			-4.916
90801.000			-44.246			-4.916
90901.000			-44.244			-4.916
91002.000			-44.243			-4.916
91100.000			-44.241			-4.916
91200.000			-44.240			-4.916
91301.000			-44.239			-4.915
91400.000			-44.238			-4.915
91500.000			-44.235			-4.915
91601.000			-44.235			-4.915
91701.000			-44.234			-4.915
91801.000			-44.232			-4.915
91901.000			-44.232			-4.915
92000.000			-44.230			-4.914
92100.000			-44.230			-4.914
92201.000			-44.228			-4.914
92300.000			-44.227			-4.914
92400.000			-44.226			-4.914
92502.000			-44.224			-4.914
92601.000			-44.223			-4.914
92700.000			-44.223			-4.914
92801.000			-44.221			-4.913
92900.000			-44.220			-4.913
93000.000			-44.219			-4.913
93101.000			-44.217			-4.913
93200.000			-44.215			-4.913
93301.000			-44.214			-4.913
93402.000			-44.213			-4.913
93500.000			-44.212			-4.912
93601.000			-44.211			-4.912
93700.000			-44.210			-4.912
93800.000			-44.208			-4.912
93901.000			-44.206			-4.912
94000.000			-44.206			-4.912
94101.000			-44.205			-4.912
94202.000			-44.204			-4.912
94300.000			-44.204			-4.912
94400.000			-44.200			-4.911
94501.000			-44.199			-4.911
94600.000			-44.198			-4.911
94700.000			-44.196			-4.911
94801.000			-44.195			-4.911
94901.000			-44.195			-4.911
95001.000			-44.194			-4.910
95101.000			-44.193			-4.910
95200.000			-44.191			-4.910
95300.000			-44.189			-4.910
95401.000			-44.188			-4.910
95500.000			-44.187			-4.910
95600.000			-44.185			-4.909
95702.000			-44.185			-4.909
95801.000			-44.184			-4.909
95901.000			-44.183			-4.909
96001.000			-44.182			-4.909
96100.000			-44.181			-4.909
96200.000			-44.179			-4.909
96301.000			-44.177			-4.909
96400.000			-44.177			-4.909
96500.000			-44.175			-4.908
96602.000			-44.172			-4.908
96701.000			-44.172			-4.908
96801.000			-44.171			-4.908
96900.000			-44.170			-4.908
97000.000			-44.169			-4.908
97101.000			-44.169			-4.908
97200.000			-44.168			-4.908
97300.000			-44.166			-4.907
97402.000			-44.165			-4.907
97501.000			-44.163			-4.907
97600.000			-44.162			-4.907
97701.000			-44.161			-4.907
97800.000			-44.160			-4.907
97900.000			-44.159			-4.907
98001.000			-44.158			-4.906
98100.000			-44.156			-4.906
98200.000			-44.154			-4.906
98302.000			-44.155			-4.906
98401.000			-44.155			-4.906
98500.000			-44.153			-4.906
98601.000			-44.151			-4.906
98700.000			-44.150			-4.906
98800.000			-44.149			-4.905
98901.000			-44.147			-4.905
99000.000			-44.145			-4.905
99101.000			-44.144			-4.905
99202.000			-44.143			-4.905
99300.000			-44.142			-4.905
99400.000			-44.141			-4.905
99501.000			-44.140			-4.904
99600.000			-44.138			-4.904
99700.000			-44.137			-4.904
99801.000			-44.136			-4.904
99901.000			-44.136			-4.904
100002.000			-44.135			-4.904
100101.000			-44.134			-4.904
100200.000			-44.133			-4.904
100301.000			-44.130			-4.903
100400.000			-44.130			-4.903
100500.000			-44.129			-4.903
100601.000			-44.128			-4.903
100700.000			-44.127			-4.903
100801.000			-44.125			-4.903
100902.000			-44.124			-4.903
101000.000			-44.122			-4.902
101100.000			-44.120			-4.902
101201.000			-44.120			-4.902
101300.000			-44.119			-4.902
101400.000			-44.118			-4.902
101501.000			-44.118			-4.902
101601.000			-44.116			-4.902
101701.000			-44.114			-4.902
101801.000			-44.114			-4.902
101900.000			-44.113			-4.901
102000.000			-44.112			-4.901
102101.000			-44.111			-4.901
102200.000			-44.109			-4.901
102300.000			-44.108			-4.901
102402.000			-44.108			-4.901
102501.000			-44.106			-4.901
102600.000			-44.104			-4.900
102701.000			-44.104			-4.900
102800.000			-44.103			-4.900
102900.000			-44.103			-4.900
103001.000			-44.101			-4.900
103100.000			-44.100			-4.900
103202.000			-44.097			-4.900
103301.000			-44.096			-4.900
103400.000			-44.095			-4.899
103501.000			-44.094			-4.899
103600.000			-44.094			-4.899
103700.000			-44.092			-4.899
103801.000			-44.091			-4.899
103900.000			-44.090			-4.899
104001.000			-44.089			-4.899
104102.000			-44.088			-4.899
104201.000			-44.087			-4.899
104300.000			-44.086			-4.898
104401.000			-44.085			-4.898
104500.000			-44.084			-4.898
104600.000			-44.083			-4.898
104701.000			-44.081			-4.898
104800.000			-44.080			-4.898
104901.000			-44.078			-4.898
105002.000			-44.077			-4.897
105100.000			-44.076			-4.897
105200.000			-44.076			-4.897
105301.000			-44.076			-4.897
105400.000			-44.072			-4.897
105500.000			-44.071			-4.897
105601.000			-44.070			-4.897
105701.000			-44.069			-4.897
105801.000			-44.069			-4.897
105901.000			-44.068			-4.896
106000.000			-44.066			-4.896
106100.000			-44.065			-4.896
106201.000			-44.065			-4.896
106300.000			-44.064			-4.896
106401.000			-44.063			-4.896
106500.000			-44.062			-4.896
106601.000			-44.060			-4.896
106702.000			-44.059			-4.895
106800.000			-44.059			-4.895
106900.000			-44.057			-4.895
107001.000			-44.056			-4.895
107100.000			-44.055			-4.895
107200.000			-44.053			-4.895
107301.000			-44.052			-4.895
107401.000			-44.052			-4.895
107501.000			-44.052			-4.895
107601.000			-44.050			-4.894
107700.000			-44.049			-4.894
107800.000			-44.048			-4.894
107901.000			-44.047			-4.894
108000.000			-44.046			-4.894
108100.000			-44.045			-4.894
108202.000			-44.043			-4.894
108301.000			-44.042			-4.894
108401.000			-44.041			-4.893
108501.000			-44.041			-4.893
108600.000			-44.040			-4.893
108700.000			-44.039			-4.893
108801.000			-44.038			-4.893
108900.000			-44.037			-4.893
109000.000			-44.035			-4.893
109102.000			-44.034			-4.893
109201.000			-44.032			-4.892
109300.000			-44.031			-4.892
109401.000			-44.030			-4.892
109500.000			-44.030			-4.892
109601.000			-44.029			-4.892
109700.000			-44.027			-4.892
109800.000			-44.026			-4.892
109902.000			-44.025			-4.892
110001.000			-44.024			-4.892
110100.000			-44.023			-4.891
110201.000			-44.022			-4.891
110300.000			-44.022			-4.891
110400.000			-44.022			-4.891
110501.000			-44.019			-4.891
110600.000			-44.017			-4.891
110701.000			-44.016			-4.891
110802.000			-44.015			-4.891
110900.000			-44.015			-4.891
111000.000			-44.014			-4.890
111101.000			-44.013			-4.890
111200.000			-44.012			-4.890
111300.000			-44.010			-4.890
111401.000			-44.009			-4.890
111501.000			-44.007			-4.890
111601.000			-44.007			-4.890
111701.000			-44.006			-4.890
111800.000			-44.006			-4.890
111900.000			-44.005			-4.889
112001.000			-44.004			-4.889
112100.000			-44.003			-4.889
112200.000			-44.000			-4.889
112302.000			-44.000			-4.889
112401.000			-44.000			-4.889
112500.000			-43.999			-4.889
112601.000			-43.998			-4.889
112700.000			-43.995			-4.888
112801.000			-43.995			-4.888
112900.000			-43.994			-4.888
113000.000			-43.994			-4.888
113101.000			-43.993			-4.888
113201.000			-43.992			-4.888
113301.000			-43.991			-4.888
113401.000			-43.989			-4.888
113500.000			-43.987			-4.887
113600.000			-43.987			-4.887
113701.000			-43.986			-4.887
113800.000			-43.985			-4.887
113900.000			-43.984			-4.887
114001.000			-43.982			-4.887
114101.000			-43.982			-4.887
114201.000			-43.981			-4.887
114301.000			-43.981			-4.887
114400.000			-43.980			-4.887
114500.000			-43.978			-4.886
114601.000			-43.977			-4.886
114700.000			-43.976			-4.886
114800.000			-43.975			-4.886
114902.000			-43.974			-4.886
115001.000			-43.972			-4.886
115100.000			-43.971			-4.886
115201.000			-43.971			-4.886
115300.000			-43.970			-4.886
115400.000			-43.969			-4.885
115501.000			-43.968			-4.885
115600.000			-43.967			-4.885
115700.000			-43.966			-4.885
115802.000			-43.964			-4.885
115901.000			-43.964			-4.885
116001.000			-43.963			-4.885
116100.000			-43.962			-4.885
116200.000			-43.960			-4.884
116301.000			-43.959			-4.884
116400.000			-43.958			-4.884
116500.000			-43.957			-4.884
116601.000			-43.958			-4.884
116701.000			-43.957			-4.884
116801.000			-43.955			-4.884
116901.000			-43.954			-4.884
117000.000			-43.953			-4.884
117100.000			-43.952			-4.884
117201.000			-43.951			-4.883
117300.000			-43.950			-4.883
117400.000			-43.949			-4.883
117502.000			-43.948			-4.883
117601.000			-43.947			-4.883
117700.000			-43.947			-4.883
117801.000			-43.944			-4.883
117900.000			-43.944			-4.883
118000.000			-43.943			-4.883
118101.000			-43.943			-4.883
118200.000			-43.941			-4.882
118300.000			-43.940			-4.882
118402.000			-43.940			-4.882
118501.000			-43.939			-4.882
118600.000			-43.937			-4.882
118701.000			-43.937			-4.882
118800.000			-43.936			-4.882
118900.000			-43.935			-4.882
119001.000			-43.933			-4.881
119100.000			-43.934			-4.882
119201.000			-43.932			-4.881
119301.000			-43.930			-4.881
119401.000			-43.929			-4.881
119501.000			-43.928			-4.881
119600.000			-43.928			-4.881
119700.000			-43.926			-4.881
119801.000			-43.925			-4.881
119900.000			-43.925			-4.881
120000.000			-43.924			-4.880
120101.000			-43.923			-4.880
120201.000			-43.921			-4.880
120301.000			-43.921			-4.880
120401.000			-43.921			-4.880
120500.000			-43.919			-4.880
120600.000			-43.918			-4.880
120701.000			-43.918			-4.880
120800.000			-43.915			-4.879
120900.000			-43.915			-4.879
121002.000			-43.915			-4.879
121101.000			-43.914			-4.879
121200.000			-43.913			-4.879
121301.000			-43.912			-4.879
121400.000			-43.912			-4.879
121500.000			-43.909			-4.879
121601.000			-43.907			-4.879
121700.000			-43.907			-4.879
121801.000			-43.907			-4.879
121902.000			-43.906			-4.878
122001.000			-43.906			-4.878
122100.000			-43.905			-4.878
122201.000			-43.903			-4.878
122300.000			-43.902			-4.878
122401.000			-43.900			-4.878
122500.000			-43.900			-4.878
122600.000			-43.899			-4.878
122702.000			-43.898			-4.878
122801.000			-43.897			-4.877
122900.000			-43.896			-4.877
123001.000			-43.895			-4.877
123100.000			-43.896			-4.877
123200.000			-43.895			-4.877
123301.000			-43.893			-4.877
123400.000			-43.892			-4.877
123501.000			-43.891			-4.877
123602.000			-43.891			-4.877
123700.000			-43.888			-4.876
123800.000			-43.887			-4.876
123901.000			-43.888			-4.876
124000.000			-43.886			-4.876
124100.000			-43.886			-4.876
124201.000			-43.885			-4.876
124300.000			-43.884			-4.876
124401.000			-43.883			-4.876
124502.000			-43.883			-4.876
124600.000			-43.882			-4.876
124700.000			-43.881			-4.876
124801.000			-43.880			-4.876
124900.000			-43.878			-4.875
125000.000			-43.876			-4.875
125101.000			-43.876			-4.875
125201.000			-43.875			-4.875
125301.000			-43.874			-4.875
125402.000			-43.874			-4.875
125500.000			-43.872			-4.875
125601.000			-43.872			-4.875
125700.000			-43.871			-4.875
125800.000			-43.869			-4.874
125901.000			-43.869			-4.874
126000.000			-43.868			-4.874
126100.000			-43.867			-4.874
126202.000			-43.867			-4.874
126301.000			-43.865			-4.874
126400.000			-43.864			-4.874
126501.000			-43.864			-4.874
126600.000			-43.862			-4.874
126700.000			-43.862			-4.874
126801.000			-43.860			-4.873
126900.000			-43.860			-4.873
127001.000			-43.859			-4.873
127102.000			-43.858			-4.873
127201.000			-43.857			-4.873
127300.000			-43.855			-4.873
127401.000			-43.855			-4.873
127500.000			-43.855			-4.873
127600.000			-43.854			-4.873
127701.000			-43.852			-4.872
127800.000			-43.851			-4.872
127901.000			-43.850			-4.872
128002.000			-43.850			-4.872
128100.000			-43.848			-4.872
128200.000			-43.846			-4.872
128301.000			-43.846			-4.872
128400.000			-43.846			-4.872
128500.000			-43.845			-4.872
128601.000			-43.845			-4.872
128700.000			-43.845			-4.872
128802.000			-43.842			-4.871
128901.000			-43.841			-4.871
129000.000			-43.840			-4.871
129101.000			-43.839			-4.871
129200.000			-43.839			-4.871
129300.000			-43.838			-4.871
129401.000			-43.837			-4.871
129500.000			-43.836			-4.871
129600.000			-43.835			-4.871
129702.000			-43.834			-4.870
129801.000			-43.833			-4.870
129900.000			-43.833			-4.870
130001.000			-43.832			-4.870
130100.000			-43.832			-4.870
130200.000			-43.830			-4.870
130301.000			-43.828			-4.870
130400.000			-43.828			-4.870
130501.000			-43.827			-4.870
130602.000			-43.825			-4.869
130700.000			-43.825			-4.869
130800.000			-43.824			-4.869
130901.000			-43.824			-4.869
131000.000			-43.824			-4.869
131100.000			-43.822			-4.869
131201.000			-43.822			-4.869
131300.000			-43.821			-4.869
131401.000			-43.819			-4.869
131502.000			-43.819			-4.869
131600.000			-43.818			-4.869
131700.000			-43.816			-4.868
131801.000			-43.815			-4.868
131900.000			-43.815			-4.868
132001.000			-43.815			-4.868
132100.000			-43.814			-4.868
132200.000			-43.813			-4.868
132302.000			-43.812			-4.868
132401.000			-43.812			-4.868
132500.000			-43.810			-4.868
132601.000			-43.810			-4.868
132700.000			-43.809			-4.868
132800.000			-43.807			-4.867
132901.000			-43.805			-4.867
133000.000			-43.805			-4.867
133100.000			-43.804			-4.867
133202.000			-43.804			-4.867
133301.000			-43.803			-4.867
133400.000			-43.802			-4.867
133501.000			-43.801			-4.867
133600.000			-43.800			-4.867
133700.000			-43.799			-4.867
133801.000			-43.798			-4.866
133900.000			-43.797			-4.866
134000.000			-43.797			-4.866
134102.000			-43.795			-4.866
134201.000			-43.795			-4.866
134301.000			-43.794			-4.866
134401.000			-43.792			-4.866
134500.000			-43.791			-4.866
134600.000			-43.791			-4.866
134701.000			-43.790			-4.866
134800.000			-43.789			-4.865
134900.000			-43.789			-4.865
135001.000			-43.789			-4.865
135101.000			-43.788			-4.865
135202.000			-43.787			-4.865
135300.000			-43.784			-4.865
135400.000			-43.784			-4.865
135501.000			-43.783			-4.865
135600.000			-43.782			-4.865
135700.000			-43.783			-4.865
135801.000			-43.781			-4.865
135900.000			-43.779			-4.864
136001.000			-43.779			-4.864
136102.000			-43.778			-4.864
136201.000			-43.777			-4.864
136300.000			-43.777			-4.864
136401.000			-43.776			-4.864
136500.000			-43.775			-4.864
136600.000			-43.775			-4.864
136701.000			-43.773			-4.864
136800.000			-43.772			-4.864
136900.000			-43.771			-4.863
137002.000			-43.770			-4.863
137101.000			-43.769			-4.863
137200.000			-43.768			-4.863
137301.000			-43.767			-4.863
137400.000			-43.767			-4.863
137500.000			-43.766			-4.863
137601.000			-43.766			-4.863
137700.000			-43.765			-4.863
137800.000			-43.764			-4.863
137902.000			-43.763			-4.863
138001.000			-43.763			-4.863
138101.000			-43.762			-4.862
138201.000			-43.761			-4.862
138300.000			-43.760			-4.862
138401.000			-43.759			-4.862
138500.000			-43.758			-4.862
138600.000			-43.757			-4.862
138701.000			-43.756			-4.862
138800.000			-43.756			-4.862
138901.000			-43.755			-4.862
139002.000			-43.753			-4.861
139100.000			-43.753			-4.861
139200.000			-43.752			-4.861
139301.000			-43.752			-4.861
139400.000			-43.751			-4.861
139500.000			-43.750			-4.861
139601.000			-43.748			-4.861
139700.000			-43.749			-4.861
139801.000			-43.748			-4.861
139902.000			-43.747			-4.861
140001.000			-43.745			-4.861
140100.000			-43.744			-4.860
140201.000			-43.743			-4.860
140300.000			-43.743			-4.860
140400.000			-43.742			-4.860
140501.000			-43.741			-4.860
140600.000			-43.740			-4.860
140700.000			-43.740			-4.860
140802.000			-43.740			-4.860
140901.000			-43.739			-4.860
141000.000			-43.738			-4.860
141101.000			-43.737			-4.860
141200.000			-43.736			-4.860
141300.000			-43.736			-4.860
141401.000			-43.734			-4.859
141500.000			-43.733			-4.859
141601.000			-43.733			-4.859
141701.000			-43.732			-4.859
141801.000			-43.731			-4.859
141902.000			-43.730			-4.859
142000.000			-43.730			-4.859
142100.000			-43.729			-4.859
142201.000			-43.729			-4.859
142300.000			-43.727			-4.859
142400.000			-43.726			-4.858
142501.000			-43.726			-4.858
142601.000			-43.725			-4.858
142701.000			-43.725			-4.858
142802.000			-43.723			-4.858
142900.000			-43.722			-4.858
143000.000			-43.721			-4.858
143101.000			-43.721			-4.858
143200.000			-43.720			-4.858
143300.000			-43.719			-4.858
143401.000			-43.718			-4.858
143500.000			-43.717			-4.857
143601.000			-43.716			-4.857
143702.000			-43.716			-4.857
143800.000			-43.715			-4.857
143900.000			-43.715			-4.857
144001.000			-43.714			-4.857
144100.000			-43.713			-4.857
144200.000			-43.712			-4.857
144301.000			-43.712			-4.857
144400.000			-43.710			-4.857
144501.000			-43.709			-4.857
144602.000			-43.709			-4.857
144700.000			-43.709			-4.857
144801.000			-43.709			-4.857
144900.000			-43.706			-4.856
145000.000			-43.705			-4.856
145101.000			-43.705			-4.856
145200.000			-43.704			-4.856
145300.000			-43.704			-4.856
145402.000			-43.703			-4.856
145501.000			-43.702			-4.856
145601.000			-43.700			-4.856
145701.000			-43.699			-4.855
145800.000			-43.699			-4.855
145900.000			-43.698			-4.855
146001.000			-43.697			-4.855
146100.000			-43.697			-4.855
146200.000			-43.697			-4.855
146301.000			-43.696			-4.855
146401.000			-43.694			-4.855
146501.000			-43.694			-4.855
146601.000			-43.693			-4.855
146700.000			-43.692			-4.855
146800.000			-43.691			-4.855
146901.000			-43.690			-4.854
147000.000			-43.689			-4.854
147100.000			-43.689			-4.854
147201.000			-43.688			-4.854
147300.000			-43.688			-4.854
147401.000			-43.687			-4.854
147502.000			-43.686			-4.854
147600.000			-43.685			-4.854
147700.000			-43.685			-4.854
147801.000			-43.684			-4.854
147900.000			-43.682			-4.854
148001.000			-43.681			-4.853
148100.000			-43.681			-4.853
148200.000			-43.680			-4.853
148302.000			-43.679			-4.853
148401.000			-43.678			-4.853
148501.000			-43.678			-4.853
148601.000			-43.676			-4.853
148700.000			-43.676			-4.853
148800.000			-43.677			-4.853
148901.000			-43.676			-4.853
149000.000			-43.674			-4.853
149100.000			-43.673			-4.853
149201.000			-43.673			-4.853
149301.000			-43.672			-4.852
149401.000			-43.671			-4.852
149502.000			-43.670			-4.852
149600.000			-43.669			-4.852
149700.000			-43.669			-4.852
149801.000			-43.668			-4.852
149900.000			-43.667			-4.852
150000.000			-43.665			-4.852
150101.000			-43.664			-4.852
150200.000			-43.664			-4.852
150301.000			-43.664			-4.852
150402.000			-43.663			-4.851
150501.000			-43.662			-4.851
150600.000			-43.662			-4.851
150701.000			-43.662			-4.851
150800.000			-43.660			-4.851
150900.000			-43.659			-4.851
151001.000			-43.658			-4.851
151100.000			-43.659			-4.851
151201.000			-43.658			-4.851
151301.000			-43.657			-4.851
151401.000			-43.655			-4.851
151501.000			-43.655			-4.851
151600.000			-43.654			-4.850
151700.000			-43.654			-4.850
151801.000			-43.653			-4.850
151900.000			-43.652			-4.850
152000.000			-43.651			-4.850
152101.000			-43.650			-4.850
152201.000			-43.648			-4.850
152301.000			-43.649			-4.850
152401.000			-43.648			-4.850
152500.000			-43.647			-4.850
152600.000			-43.647			-4.850
152701.000			-43.646			-4.850
152800.000			-43.646			-4.850
152900.000			-43.645			-4.849
153001.000			-43.642			-4.849
153101.000			-43.642			-4.849
153201.000			-43.642			-4.849
153302.000			-43.641			-4.849
153400.000			-43.640			-4.849
153500.000			-43.640			-4.849
153601.000			-43.639			-4.849
153700.000			-43.637			-4.849
153800.000			-43.636			-4.848
153901.000			-43.636			-4.848
154000.000			-43.637			-4.849
154101.000			-43.636			-4.848
154202.000			-43.634			-4.848
154300.000			-43.633			-4.848
154401.000			-43.632			-4.848
154500.000			-43.631			-4.848
154600.000			-43.630			-4.848
154701.000			-43.630			-4.848
154800.000			-43.630			-4.848
154900.000			-43.629			-4.848
155002.000			-43.629			-4.848
155101.000			-43.629			-4.848
155201.000			-43.626			-4.847
155301.000			-43.626			-4.847
155400.000			-43.624			-4.847
155500.000			-43.624			-4.847
155601.000			-43.624			-4.847
155700.000			-43.623			-4.847
155800.000			-43.622			-4.847
155901.000			-43.620			-4.847
156001.000			-43.620			-4.847
156101.000			-43.620			-4.847
156201.000			-43.620			-4.847
156300.000			-43.619			-4.847
156400.000			-43.617			-4.846
156501.000			-43.617			-4.846
156600.000			-43.616			-4.846
156700.000			-43.615			-4.846
156801.000			-43.615			-4.846
156901.000			-43.613			-4.846
157001.000			-43.613			-4.846
157102.000			-43.613			-4.846
157200.000			-43.612			-4.846
157300.000			-43.611			-4.846
157401.000			-43.611			-4.846
157500.000			-43.610			-4.846
157601.000			-43.609			-4.845
157700.000			-43.608			-4.845
157800.000			-43.607			-4.845
157902.000			-43.607			-4.845
158001.000			-43.606			-4.845
158100.000			-43.604			-4.845
158201.000			-43.604			-4.845
158300.000			-43.603			-4.845
158400.000			-43.603			-4.845
158501.000			-43.602			-4.845
158600.000			-43.601			-4.845
158700.000			-43.601			-4.845
158802.000			-43.600			-4.844
158901.000			-43.599			-4.844
159000.000			-43.598			-4.844
159101.000			-43.597			-4.844
159200.000			-43.597			-4.844
159300.000			-43.596			-4.844
159401.000			-43.594			-4.844
159500.000			-43.594			-4.844
159600.000			-43.592			-4.844
159701.000			-43.592			-4.844
159801.000			-43.592			-4.844
159901.000			-43.592			-4.844
160001.000			-43.591			-4.843
160100.000			-43.590			-4.843
160200.000			-43.589			-4.843
160301.000			-43.587			-4.843
160400.000			-43.588			-4.843
160500.000			-43.588			-4.843
160601.000			-43.587			-4.843
160701.000			-43.586			-4.843
160802.000			-43.586			-4.843
160901.000			-43.584			-4.843
161000.000			-43.584			-4.843
161101.000			-43.582			-4.842
161200.000			-43.581			-4.842
161300.000			-43.582			-4.842
161401.000			-43.580			-4.842
161500.000			-43.580			-4.842
161600.000			-43.580			-4.842
161702.000			-43.578			-4.842
161801.000			-43.577			-4.842
161900.000			-43.577			-4.842
162001.000			-43.576			-4.842
162100.000			-43.576			-4.842
162200.000			-43.575			-4.842
162301.000			-43.574			-4.842
162400.000			-43.574			-4.842
162500.000			-43.572			-4.841
162602.000			-43.572			-4.841
162701.000			-43.570			-4.841
162801.000			-43.570			-4.841
162901.000			-43.570			-4.841
163000.000			-43.569			-4.841
163100.000			-43.569			-4.841
163201.000			-43.566			-4.841
163300.000			-43.566			-4.841
163400.000			-43.566			-4.841
163502.000			-43.565			-4.841
163601.000			-43.565			-4.841
163701.000			-43.564			-4.840
163801.000			-43.564			-4.840
163900.000			-43.563			-4.840
164001.000			-43.562			-4.840
164100.000			-43.563			-4.840
164200.000			-43.562			-4.840
164301.000			-43.560			-4.840
164400.000			-43.559			-4.840
164501.000			-43.558			-4.840
164602.000			-43.559			-4.840
164701.000			-43.556			-4.840
164800.000			-43.556			-4.840
164901.000			-43.556			-4.840
165000.000			-43.556			-4.840
165100.000			-43.555			-4.839
165201.000			-43.554			-4.839
165300.000			-43.553			-4.839
165400.000			-43.551			-4.839
165502.000			-43.552			-4.839
165601.000			-43.552			-4.839
165700.000			-43.551			-4.839
165801.000			-43.550			-4.839
165900.000			-43.549			-4.839
166000.000			-43.548			-4.839
166101.000			-43.548			-4.839
166200.000			-43.547			-4.839
166300.000			-43.546			-4.838
166402.000			-43.546			-4.838
166501.000			-43.545			-4.838
166600.000			-43.544			-4.838
166701.000			-43.543			-4.838
166800.000			-43.542			-4.838
166900.000			-43.541			-4.838
167001.000			-43.541			-4.838
167100.000			-43.540			-4.838
167201.000			-43.541			-4.838
167301.000			-43.540			-4.838
167401.000			-43.539			-4.838
167502.000			-43.539			-4.838
167600.000			-43.537			-4.837
167700.000			-43.536			-4.837
167801.000			-43.536			-4.837
167900.000			-43.535			-4.837
168000.000			-43.535			-4.837
168101.000			-43.534			-4.837
168200.000			-43.534			-4.837
168301.000			-43.531			-4.837
168402.000			-43.532			-4.837
168500.000			-43.531			-4.837
168600.000			-43.530			-4.837
168701.000			-43.529			-4.837
168800.000			-43.529			-4.837
168900.000			-43.528			-4.836
169001.000			-43.527			-4.836
169100.000			-43.525			-4.836
169201.000			-43.525			-4.836
169302.000			-43.525			-4.836
169401.000			-43.525			-4.836
169500.000			-43.524			-4.836
169601.000			-43.523			-4.836
169700.000			-43.522			-4.836
169800.000			-43.521			-4.836
169901.000			-43.521			-4.836
170000.000			-43.520			-4.836
170100.000			-43.518			-4.835
170202.000			-43.519			-4.835
170301.000			-43.518			-4.835
170401.000			-43.517			-4.835
170500.000			-43.516			-4.835
170600.000			-43.515			-4.835
170701.000			-43.514			-4.835
170800.000			-43.515			-4.835
170900.000			-43.515			-4.835
171001.000			-43.514			-4.835
171101.000			-43.513			-4.835
171201.000			-43.513			-4.835
171301.000			-43.511			-4.835
171400.000			-43.510			-4.834
171500.000			-43.510			-4.834
171601.000			-43.509			-4.834
171700.000			-43.508			-4.834
171800.000			-43.507			-4.834
171901.000			-43.507			-4.834
172001.000			-43.506			-4.834
172101.000			-43.506			-4.834
172201.000			-43.506			-4.834
172300.000			-43.505			-4.834
172400.000			-43.503			-4.834
172501.000			-43.503			-4.834
172600.000			-43.502			-4.834
172700.000			-43.503			-4.834
172801.000			-43.501			-4.833
172901.000			-43.500			-4.833
173001.000			-43.500			-4.833
173101.000			-43.499			-4.833
173200.000			-43.499			-4.833
173300.000			-43.498			-4.833
173401.000			-43.498			-4.833
173500.000			-43.497			-4.833
173601.000			-43.496			-4.833
173700.000			-43.496			-4.833
173800.000			-43.495			-4.833
173902.000			-43.493			-4.833
174001.000			-43.492			-4.832
174100.000			-43.492			-4.832
174201.000			-43.491			-4.832
174300.000			-43.491			-4.832
174400.000			-43.490			-4.832
174501.000			-43.489			-4.832
174600.000			-43.488			-4.832
174700.000			-43.488			-4.832
174802.000			-43.488			-4.832
174901.000			-43.486			-4.832
175001.000			-43.485			-4.832
175101.000			-43.485			-4.832
175200.000			-43.485			-4.832
175300.000			-43.485			-4.832
175401.000			-43.484			-4.832
175500.000			-43.483			-4.831
175600.000			-43.482			-4.831
175701.000			-43.481			-4.831
175801.000			-43.481			-4.831
175901.000			-43.481			-4.831
176001.000			-43.480			-4.831
176100.000			-43.479			-4.831
176200.000			-43.479			-4.831
176301.000			-43.479			-4.831
176400.000			-43.478			-4.831
176500.000			-43.477			-4.831
176601.000			-43.476			-4.831
176701.000			-43.475			-4.831
176802.000			-43.475			-4.831
176901.000			-43.475			-4.831
177000.000			-43.474			-4.830
177101.000			-43.472			-4.830
177200.000			-43.471			-4.830
177300.000			-43.471			-4.830
177401.000			-43.470			-4.830
177500.000			-43.470			-4.830
177600.000			-43.469			-4.830
177702.000			-43.468			-4.830
177801.000			-43.469			-4.830
177900.000			-43.468			-4.830
178001.000			-43.467			-4.830
178100.000			-43.466			-4.830
178200.000			-43.465			-4.829
178301.000			-43.465			-4.829
178400.000			-43.465			-4.829
178500.000			-43.465			-4.829
178601.000			-43.462			-4.829
178701.000			-43.461			-4.829
178801.000			-43.462			-4.829
178901.000			-43.462			-4.829
179000.000			-43.461			-4.829
179100.000			-43.459			-4.829
179201.000			-43.459			-4.829
179300.000			-43.458			-4.829
179400.000			-43.457			-4.829
179501.000			-43.457			-4.829
179601.000			-43.456			-4.828
179701.000			-43.456			-4.828
179802.000			-43.456			-4.828
179900.000			-43.455			-4.828
180001.000			-43.453			-4.828
180100.000			-43.452			-4.828
180200.000			-43.451			-4.828
180301.000			-43.451			-4.828
180400.000			-43.452			-4.828
180500.000			-43.451			-4.828
180602.000			-43.450			-4.828
180701.000			-43.449			-4.828
180800.000			-43.449			-4.828
180901.000			-43.449			-4.828
181000.000			-43.448			-4.828
181100.000			-43.447			-4.827
181201.000			-43.446			-4.827
181300.000			-43.445			-4.827
181400.000			-43.446			-4.827
181502.000			-43.444			-4.827
181601.000			-43.444			-4.827
181701.000			-43.443			-4.827
181801.000			-43.442			-4.827
181900.000			-43.441			-4.827
182000.000			-43.442			-4.827
182101.000			-43.441			-4.827
182200.000			-43.439			-4.827
182300.000			-43.438			-4.826
182402.000			-43.437			-4.826
182501.000			-43.437			-4.826
182601.000			-43.437			-4.826
182701.000			-43.437			-4.826
182800.000			-43.436			-4.826
182900.000			-43.435			-4.826
183001.000			-43.435			-4.826
183100.000			-43.434			-4.826
183201.000			-43.434			-4.826
183300.000			-43.434			-4.826
183401.000			-43.433			-4.826
183502.000			-43.433			-4.826
183600.000			-43.432			-4.826
183700.000			-43.430			-4.826
183801.000			-43.429			-4.825
183900.000			-43.429			-4.825
184000.000			-43.429			-4.825
184101.000			-43.429			-4.825
184200.000			-43.427			-4.825
184301.000			-43.427			-4.825
184402.000			-43.426			-4.825
184501.000			-43.426			-4.825
184600.000			-43.424			-4.825
184701.000			-43.425			-4.825
184800.000			-43.424			-4.825
184900.000			-43.423			-4.825
185001.000			-43.423			-4.825
185100.000			-43.422			-4.825
185200.000			-43.420			-4.824
185302.000			-43.420			-4.824
185401.000			-43.419			-4.824
185500.000			-43.418			-4.824
185601.000			-43.418			-4.824
185700.000			-43.417			-4.824
185800.000			-43.417			-4.824
185901.000			-43.416			-4.824
186000.000			-43.416			-4.824
186100.000			-43.415			-4.824
186202.000			-43.415			-4.824
186301.000			-43.415			-4.824
186402.000			-43.413			-4.824
186500.000			-43.413			-4.824
186600.000			-43.411			-4.823
186701.000			-43.411			-4.823
186800.000			-43.411			-4.823
186900.000			-43.411			-4.823
187001.000			-43.409			-4.823
187100.000			-43.409			-4.823
187201.000			-43.408			-4.823
187302.000			-43.408			-4.823
187400.000			-43.408			-4.823
187500.000			-43.407			-4.823
187601.000			-43.407			-4.823
187700.000			-43.405			-4.823
187800.000			-43.404			-4.823
187901.000			-43.403			-4.823
188000.000			-43.404			-4.823
188101.000			-43.403			-4.823
188202.000			-43.402			-4.822
188301.000			-43.401			-4.822
188400.000			-43.401			-4.822
188501.000			-43.400			-4.822
188600.000			-43.399			-4.822
188700.000			-43.399			-4.822
188801.000			-43.398			-4.822
188900.000			-43.398			-4.822
189000.000			-43.398			-4.822
189102.000			-43.397			-4.822
189201.000			-43.396			-4.822
189301.000			-43.395			-4.822
189401.000			-43.394			-4.822
189500.000			-43.394			-4.822
189601.000			-43.393			-4.821
189700.000			-43.393			-4.821
189800.000			-43.392			-4.821
189901.000			-43.391			-4.821
190000.000			-43.391			-4.821
190101.000			-43.390			-4.821
190202.000			-43.390			-4.821
190300.000			-43.389			-4.821
190400.000			-43.389			-4.821
190501.000			-43.388			-4.821
190600.000			-43.387			-4.821
190700.000			-43.386			-4.821
190801.000			-43.387			-4.821
190900.000			-43.387			-4.821
191001.000			-43.385			-4.821
191102.000			-43.384			-4.820
191201.000			-43.384			-4.820
191300.000			-43.383			-4.820
191401.000			-43.382			-4.820
191500.000			-43.382			-4.820
191600.000			-43.381			-4.820
191701.000			-43.381			-4.820
191800.000			-43.380			-4.820
191900.000			-43.379			-4.820
192002.000			-43.379			-4.820
192101.000			-43.379			-4.820
192200.000			-43.378			-4.820
192301.000			-43.377			-4.820
192400.000			-43.376			-4.820
192500.000			-43.375			-4.819
192601.000			-43.374			-4.819
192700.000			-43.374			-4.819
192801.000			-43.374			-4.819
192901.000			-43.374			-4.819
193001.000			-43.373			-4.819
193102.000			-43.373			-4.819
193200.000			-43.372			-4.819
193300.000			-43.371			-4.819
193401.000			-43.371			-4.819
193500.000			-43.369			-4.819
193600.000			-43.369			-4.819
193701.000			-43.370			-4.819
193800.000			-43.369			-4.819
193901.000			-43.367			-4.819
194002.000			-43.367			-4.819
194101.000			-43.367			-4.819
194200.000			-43.367			-4.819
194301.000			-43.366			-4.818
194400.000			-43.365			-4.818
194500.000			-43.364			-4.818
194601.000			-43.364			-4.818
194700.000			-43.362			-4.818
194800.000			-43.362			-4.818
194902.000			-43.362			-4.818
195001.000			-43.361			-4.818
195100.000			-43.361			-4.818
195201.000			-43.362			-4.818
195300.000			-43.359			-4.818
195400.000			-43.358			-4.818
195501.000			-43.358			-4.818
195600.000			-43.358			-4.818
195700.000			-43.357			-4.817
195802.000			-43.357			-4.817
195901.000			-43.357			-4.817
196002.000			-43.356			-4.817
196100.000			-43.354			-4.817
196200.000			-43.354			-4.817
196301.000			-43.354			-4.817
196400.000			-43.353			-4.817
196500.000			-43.353			-4.817
196601.000			-43.351			-4.817
196700.000			-43.351			-4.817
196801.000			-43.351			-4.817
196902.000			-43.350			-4.817
197000.000			-43.350			-4.817
197100.000			-43.348			-4.816
197201.000			-43.348			-4.816
197300.000			-43.348			-4.816
197400.000			-43.347			-4.816
197501.000			-43.347			-4.816
197600.000			-43.345			-4.816
197701.000			-43.346			-4.816
197802.000			-43.345			-4.816
197901.000			-43.343			-4.816
198000.000			-43.343			-4.816
198101.000			-43.343			-4.816
198200.000			-43.343			-4.816
198300.000			-43.340			-4.816
198401.000			-43.341			-4.816
198500.000			-43.342			-4.816
198600.000			-43.342			-4.816
198702.000			-43.340			-4.816
198801.000			-43.339			-4.815
198900.000			-43.339			-4.815
199001.000			-43.338			-4.815
199100.000			-43.338			-4.815
199201.000			-43.337			-4.815
199300.000			-43.336			-4.815
199400.000			-43.335			-4.815
199501.000			-43.335			-4.815
199600.000			-43.335			-4.815
199701.000			-43.334			-4.815
199802.000			-43.333			-4.815
199900.000			-43.332			-4.815
200000.000			-43.331			-4.815
200101.000			-43.331			-4.815
200200.000			-43.331			-4.815
200300.000			-43.330			-4.814
200401.000			-43.330			-4.814
200500.000			-43.329			-4.814
200601.000			-43.328			-4.814
200702.000			-43.328			-4.814
200800.000			-43.327			-4.814
200900.000			-43.327			-4.814
201001.000			-43.326			-4.814
201100.000			-43.325			-4.814
201200.000			-43.325			-4.814
201301.000			-43.325			-4.814
201400.000			-43.324			-4.814
201501.000			-43.323			-4.814
201602.000			-43.323			-4.814
201700.000			-43.322			-4.814
201800.000			-43.321			-4.813
201901.000			-43.320			-4.813
202000.000			-43.320			-4.813
202100.000			-43.318			-4.813
202201.000			-43.318			-4.813
202300.000			-43.320			-4.813
202402.000			-43.320			-4.813
202501.000			-43.318			-4.813
202600.000			-43.317			-4.813
202701.000			-43.316			-4.813
202800.000			-43.316			-4.813
202900.000			-43.315			-4.813
203001.000			-43.314			-4.813
203100.000			-43.314			-4.813
203200.000			-43.313			-4.813
203302.000			-43.313			-4.813
203401.000			-43.311			-4.812
203500.000			-43.311			-4.812
203601.000			-43.310			-4.812
203700.000			-43.309			-4.812
203800.000			-43.309			-4.812
203901.000			-43.309			-4.812
204000.000			-43.309			-4.812
204100.000			-43.309			-4.812
204202.000			-43.307			-4.812
204301.000			-43.307			-4.812
204400.000			-43.306			-4.812
204501.000			-43.306			-4.812
204600.000			-43.306			-4.812
204700.000			-43.305			-4.812
204801.000			-43.305			-4.812
204900.000			-43.304			-4.812
205000.000			-43.303			-4.811
205102.000			-43.302			-4.811
205201.000			-43.300			-4.811
205300.000			-43.300			-4.811
205401.000			-43.301			-4.811
205500.000			-43.302			-4.811
205601.000			-43.301			-4.811
205700.000			-43.298			-4.811
205800.000			-43.299			-4.811
205901.000			-43.298			-4.811
206001.000			-43.297			-4.811
206101.000			-43.296			-4.811
206201.000			-43.295			-4.811
206300.000			-43.295			-4.811
206400.000			-43.295			-4.811
206501.000			-43.295			-4.811
206600.000			-43.293			-4.810
206700.000			-43.293			-4.810
206801.000			-43.294			-4.810
206901.000			-43.293			-4.810
207001.000			-43.293			-4.810
207101.000			-43.291			-4.810
207200.000			-43.290			-4.810
207300.000			-43.290			-4.810
207401.000			-43.290			-4.810
207500.000			-43.290			-4.810
207600.000			-43.290			-4.810
207701.000			-43.288			-4.810
207801.000			-43.288			-4.810
207901.000			-43.287			-4.810
208002.000			-43.285			-4.809
208100.000			-43.285			-4.809
208200.000			-43.286			-4.810
208301.000			-43.285			-4.809
208400.000			-43.285			-4.809
208500.000			-43.284			-4.809
208601.000			-43.282			-4.809
208700.000			-43.282			-4.809
208802.000			-43.283			-4.809
208901.000			-43.282			-4.809
209000.000			-43.281			-4.809
209101.000			-43.280			-4.809
209200.000			-43.280			-4.809
209300.000			-43.280			-4.809
209401.000			-43.279			-4.809
209500.000			-43.279			-4.809
209600.000			-43.277			-4.809
209702.000			-43.277			-4.809
209801.000			-43.277			-4.809
209901.000			-43.276			-4.808
210001.000			-43.275			-4.808
210100.000			-43.275			-4.808
210200.000			-43.274			-4.808
210301.000			-43.273			-4.808
210400.000			-43.273			-4.808
210500.000			-43.273			-4.808
210602.000			-43.272			-4.808
210701.000			-43.270			-4.808
210800.000			-43.270			-4.808
210901.000			-43.270			-4.808
211000.000			-43.271			-4.808
211100.000			-43.269			-4.808
211201.000			-43.269			-4.808
211300.000			-43.268			-4.808
211400.000			-43.268			-4.808
211502.000			-43.267			-4.807
211601.000			-43.266			-4.807
211701.000			-43.265			-4.807
211801.000			-43.266			-4.807
211900.000			-43.266			-4.807
212001.000			-43.265			-4.807
212100.000			-43.265			-4.807
212200.000			-43.263			-4.807
212301.000			-43.262			-4.807
212401.000			-43.262			-4.807
212501.000			-43.262			-4.807
212602.000			-43.261			-4.807
212700.000			-43.261			-4.807
212800.000			-43.261			-4.807
212901.000			-43.260			-4.807
213000.000			-43.258			-4.806
213100.000			-43.258			-4.806
213201.000			-43.257			-4.806
213301.000			-43.256			-4.806
213401.000			-43.255			-4.806
213502.000			-43.255			-4.806
213600.000			-43.256			-4.806
213700.000			-43.255			-4.806
213801.000			-43.253			-4.806
213900.000			-43.253			-4.806
214000.000			-43.253			-4.806
214101.000			-43.252			-4.806
214201.000			-43.252			-4.806
214301.000			-43.253			-4.806
214401.000			-43.250			-4.806
214500.000			-43.249			-4.805
214600.000			-43.249			-4.805
214701.000			-43.250			-4.806
214800.000			-43.250			-4.806
214900.000			-43.249			-4.805
215001.000			-43.247			-4.805
215101.000			-43.247			-4.805
215202.000			-43.246			-4.805
215300.000			-43.245			-4.805
215400.000			-43.245			-4.805
215501.000			-43.245			-4.805
215600.000			-43.243			-4.805
215700.000			-43.243			-4.805
215801.000			-43.243			-4.805
215900.000			-43.243			-4.805
216001.000			-43.242			-4.805
216102.000			-43.242			-4.805
216200.000			-43.241			-4.805
216300.000			-43.240			-4.804
216401.000			-43.240			-4.804
216500.000			-43.239			-4.804
216600.000			-43.239			-4.804
216701.000			-43.239			-4.804
216800.000			-43.237			-4.804
216901.000			-43.236			-4.804
217002.000			-43.236			-4.804
217101.000			-43.236			-4.804
217200.000			-43.235			-4.804
217301.000			-43.235			-4.804
217400.000			-43.234			-4.804
217500.000			-43.233			-4.804
217601.000			-43.233			-4.804
217700.000			-43.233			-4.804
217801.000			-43.232			-4.804
217902.000			-43.231			-4.803
218001.000			-43.231			-4.803
218100.000			-43.231			-4.803
218201.000			-43.230			-4.803
218300.000			-43.229			-4.803
218401.000			-43.229			-4.803
218500.000			-43.229			-4.803
218600.000			-43.228			-4.803
218702.000			-43.228			-4.803
218801.000			-43.227			-4.803
218901.000			-43.226			-4.803
219001.000			-43.226			-4.803
219100.000			-43.226			-4.803
219200.000			-43.225			-4.803
219301.000			-43.223			-4.803
219400.000			-43.224			-4.803
219500.000			-43.224			-4.803
219601.000			-43.222			-4.802
219701.000			-43.221			-4.802
219801.000			-43.222			-4.802
219901.000			-43.221			-4.802
220000.000			-43.221			-4.802
220100.000			-43.220			-4.802
220201.000			-43.218			-4.802
220300.000			-43.218			-4.802
220400.000			-43.217			-4.802
220501.000			-43.217			-4.802
220601.000			-43.217			-4.802
220701.000			-43.216			-4.802
220801.000			-43.217			-4.802
220900.000			-43.216			-4.802
221000.000			-43.214			-4.802
221101.000			-43.213			-4.801
221200.000			-43.213			-4.801
221300.000			-43.212			-4.801
221402.000			-43.211			-4.801
221501.000			-43.211			-4.801
221602.000			-43.212			-4.801
221700.000			-43.211			-4.801
221800.000			-43.209			-4.801
221901.000			-43.208			-4.801
222000.000			-43.209			-4.801
222100.000			-43.209			-4.801
222201.000			-43.208			-4.801
222301.000			-43.207			-4.801
222401.000			-43.207			-4.801
222502.000			-43.206			-4.801
222600.000			-43.207			-4.801
222700.000			-43.206			-4.801
222801.000			-43.205			-4.801
222900.000			-43.204			-4.800
223000.000			-43.204			-4.800
223101.000			-43.204			-4.800
223201.000			-43.204			-4.800
223301.000			-43.203			-4.800
223401.000			-43.201			-4.800
223500.000			-43.201			-4.800
223600.000			-43.201			-4.800
223701.000			-43.201			-4.800
223800.000			-43.199			-4.800
223900.000			-43.199			-4.800
224001.000			-43.198			-4.800
224101.000			-43.198			-4.800
224201.000			-43.198			-4.800
224301.000			-43.197			-4.800
224400.000			-43.197			-4.800
224500.000			-43.197			-4.800
224601.000			-43.196			-4.800
224700.000			-43.195			-4.799
224801.000			-43.194			-4.799
224900.000			-43.193			-4.799
225001.000			-43.193			-4.799
225102.000			-43.193			-4.799
225201.000			-43.192			-4.799
225300.000			-43.192			-4.799
225401.000			-43.192			-4.799
225500.000			-43.191			-4.799
225600.000			-43.191			-4.799
225701.000			-43.191			-4.799
225800.000			-43.190			-4.799
225901.000			-43.189			-4.799
226002.000			-43.188			-4.799
226101.000			-43.188			-4.799
226200.000			-43.187			-4.799
226301.000			-43.186			-4.798
226400.000			-43.187			-4.799
226500.000			-43.186			-4.798
226601.000			-43.185			-4.798
226700.000			-43.184			-4.798
226800.000			-43.184			-4.798
226902.000			-43.183			-4.798
227001.000			-43.182			-4.798
227100.000			-43.182			-4.798
227201.000			-43.181			-4.798
227300.000			-43.181			-4.798
227400.000			-43.180			-4.798
227501.000			-43.180			-4.798
227600.000			-43.180			-4.798
227700.000			-43.180			-4.798
227802.000			-43.179			-4.798
227901.000			-43.179			-4.798
228002.000			-43.178			-4.798
228100.000			-43.178			-4.798
228200.000			-43.177			-4.797
228301.000			-43.177			-4.797
228400.000			-43.177			-4.797
228500.000			-43.176			-4.797
228601.000			-43.174			-4.797
228701.000			-43.174			-4.797
228801.000			-43.173			-4.797
228902.000			-43.173			-4.797
229000.000			-43.171			-4.797
229100.000			-43.171			-4.797
229201.000			-43.171			-4.797
229300.000			-43.171			-4.797
229400.000			-43.172			-4.797
229501.000			-43.171			-4.797
229600.000			-43.171			-4.797
229701.000			-43.170			-4.797
229802.000			-43.169			-4.797
229901.000			-43.168			-4.796
230000.000			-43.168			-4.796
230101.000			-43.166			-4.796
230200.000			-43.167			-4.796
230300.000			-43.166			-4.796
230401.000			-43.166			-4.796
230500.000			-43.164			-4.796
230601.000			-43.164			-4.796
230702.000			-43.164			-4.796
230801.000			-43.164			-4.796
230900.000			-43.164			-4.796
231001.000			-43.164			-4.796
231100.000			-43.163			-4.796
231201.000			-43.161			-4.796
231300.000			-43.161			-4.796
231400.000			-43.160			-4.796
231502.000			-43.160			-4.796
231601.000			-43.159			-4.795
231701.000			-43.158			-4.795
231801.000			-43.158			-4.795
231900.000			-43.158			-4.795
232000.000			-43.157			-4.795
232101.000			-43.156			-4.795
232200.000			-43.156			-4.795
232300.000			-43.156			-4.795
232401.000			-43.155			-4.795
232501.000			-43.155			-4.795
232601.000			-43.155			-4.795
232701.000			-43.154			-4.795
232800.000			-43.153			-4.795
232900.000			-43.154			-4.795
233001.000			-43.154			-4.795
233100.000			-43.152			-4.795
233200.000			-43.152			-4.795
233302.000			-43.151			-4.795
233401.000			-43.150			-4.794
233501.000			-43.150			-4.794
233601.000			-43.149			-4.794
233700.000			-43.149			-4.794
233800.000			-43.149			-4.794
233901.000			-43.149			-4.794
234000.000			-43.148			-4.794
234100.000			-43.148			-4.794
234201.000			-43.146			-4.794
234301.000			-43.146			-4.794
234402.000			-43.146			-4.794
234500.000			-43.146			-4.794
234600.000			-43.145			-4.794
234701.000			-43.145			-4.794
234800.000			-43.144			-4.794
234900.000			-43.143			-4.794
235001.000			-43.143			-4.794
235100.000			-43.143			-4.794
235201.000			-43.142			-4.794
235302.000			-43.141			-4.793
235400.000			-43.140			-4.793
235500.000			-43.141			-4.793
235601.000			-43.140			-4.793
235700.000			-43.139			-4.793
235800.000			-43.138			-4.793
235901.000			-43.138			-4.793
236000.000			-43.138			-4.793
236101.000			-43.138			-4.793
236202.000			-43.137			-4.793
236301.000			-43.135			-4.793
236400.000			-43.135			-4.793
236501.000			-43.135			-4.793
236600.000			-43.134			-4.793
236700.000			-43.133			-4.793
236801.000			-43.134			-4.793
236900.000			-43.134			-4.793
237000.000			-43.134			-4.793
237102.000			-43.132			-4.792
237201.000			-43.132			-4.792
237300.000			-43.132			-4.792
237401.000			-43.131			-4.792
237500.000			-43.130			-4.792
237601.000			-43.131			-4.792
237700.000			-43.131			-4.792
237800.000			-43.129			-4.792
237901.000			-43.128			-4.792
238001.000			-43.128			-4.792
238101.000			-43.127			-4.792
238201.000			-43.126			-4.792
238300.000			-43.126			-4.792
238400.000			-43.126			-4.792
238501.000			-43.126			-4.792
238600.000			-43.124			-4.792
238700.000			-43.123			-4.791
238801.000			-43.124			-4.792
238901.000			-43.124			-4.792
239001.000			-43.123			-4.791
239101.000			-43.122			-4.791
239200.000			-43.122			-4.791
239300.000			-43.121			-4.791
239401.000			-43.121			-4.791
239500.000			-43.120			-4.791
239600.000			-43.120			-4.791
239701.000			-43.120			-4.791
239801.000			-43.119			-4.791
239901.000			-43.118			-4.791
240001.000			-43.117			-4.791
240100.000			-43.117			-4.791
240200.000			-43.117			-4.791
240301.000			-43.117			-4.791
240400.000			-43.117			-4.791
240500.000			-43.116			-4.791
240601.000			-43.115			-4.791
240701.000			-43.114			-4.790
240802.000			-43.114			-4.790
240900.000			-43.115			-4.791
241000.000			-43.114			-4.790
241101.000			-43.114			-4.790
241200.000			-43.113			-4.790
241300.000			-43.112			-4.790
241401.000			-43.112			-4.790
241500.000			-43.112			-4.790
241601.000			-43.111			-4.790
241702.000			-43.110			-4.790
241800.000			-43.109			-4.790
241900.000			-43.109			-4.790
242001.000			-43.108			-4.790
242100.000			-43.108			-4.790
242200.000			-43.107			-4.790
242301.000			-43.108			-4.790
242400.000			-43.107			-4.790
242501.000			-43.107			-4.790
242602.000			-43.105			-4.789
242700.000			-43.105			-4.789
242800.000			-43.105			-4.789
242901.000			-43.105			-4.789
243000.000			-43.103			-4.789
243100.000			-43.103			-4.789
243201.000			-43.103			-4.789
243300.000			-43.103			-4.789
243401.000			-43.102			-4.789
243502.000			-43.102			-4.789
243600.000			-43.102			-4.789
243700.000			-43.100			-4.789
243801.000			-43.101			-4.789
243900.000			-43.100			-4.789
244001.000			-43.099			-4.789
244100.000			-43.098			-4.789
244200.000			-43.098			-4.789
244302.000			-43.099			-4.789
244401.000			-43.098			-4.789
244500.000			-43.097			-4.789
244601.000			-43.096			-4.788
244700.000			-43.095			-4.788
244800.000			-43.095			-4.788
244901.000			-43.096			-4.788
245000.000			-43.095			-4.788
245100.000			-43.094			-4.788
245202.000			-43.093			-4.788
245301.000			-43.092			-4.788
245401.000			-43.092			-4.788
245501.000			-43.092			-4.788
245600.000			-43.092			-4.788
245700.000			-43.091			-4.788
245801.000			-43.091			-4.788
245900.000			-43.091			-4.788
246000.000			-43.090			-4.788
246101.000			-43.090			-4.788
246201.000			-43.089			-4.788
246301.000			-43.088			-4.788
246401.000			-43.088			-4.788
246500.000			-43.087			-4.787
246600.000			-43.088			-4.788
246701.000			-43.087			-4.787
246800.000			-43.087			-4.787
246900.000			-43.086			-4.787
247001.000			-43.086			-4.787
247101.000			-43.085			-4.787
247202.000			-43.084			-4.787
247301.000			-43.084			-4.787
247400.000			-43.084			-4.787
247501.000			-43.083			-4.787
247600.000			-43.081			-4.787
247700.000			-43.082			-4.787
247801.000			-43.081			-4.787
247900.000			-43.081			-4.787
248000.000			-43.081			-4.787
248102.000			-43.079			-4.787
248201.000			-43.079			-4.787
248300.000			-43.078			-4.786
248401.000			-43.078			-4.786
248500.000			-43.078			-4.786
248600.000			-43.078			-4.786
248701.000			-43.078			-4.786
248800.000			-43.076			-4.786
248900.000			-43.077			-4.786
249002.000			-43.076			-4.786
249101.000			-43.076			-4.786
249201.000			-43.075			-4.786
249301.000			-43.075			-4.786
249400.000			-43.074			-4.786
249500.000			-43.074			-4.786
249601.000			-43.073			-4.786
249700.000			-43.073			-4.786
249800.000			-43.073			-4.786
249901.000			-43.072			-4.786
250001.000			-43.071			-4.786
250101.000			-43.070			-4.786
250201.000			-43.069			-4.785
250300.000			-43.070			-4.786
250401.000			-43.069			-4.785
250500.000			-43.069			-4.785
250600.000			-43.069			-4.785
250701.000			-43.069			-4.785
250800.000			-43.069			-4.785
250901.000			-43.068			-4.785
251002.000			-43.068			-4.785
251100.000			-43.066			-4.785
251200.000			-43.066			-4.785
251301.000			-43.066			-4.785
251400.000			-43.065			-4.785
251500.000			-43.065			-4.785
251601.000			-43.064			-4.785
251700.000			-43.064			-4.785
251801.000			-43.064			-4.785
251902.000			-43.062			-4.785
252001.000			-43.061			-4.785
252100.000			-43.062			-4.785
252201.000			-43.061			-4.785
252300.000			-43.060			-4.784
252400.000			-43.059			-4.784
252501.000			-43.059			-4.784
252600.000			-43.058			-4.784
252701.000			-43.058			-4.784
252802.000			-43.058			-4.784
252901.000			-43.057			-4.784
253000.000			-43.057			-4.784
253101.000			-43.055			-4.784
253200.000			-43.055			-4.784
253300.000			-43.055			-4.784
253401.000			-43.055			-4.784
253500.000			-43.055			-4.784
253602.000			-43.054			-4.784
253701.000			-43.054			-4.784
253801.000			-43.054			-4.784
253901.000			-43.052			-4.784
254000.000			-43.052			-4.784
254100.000			-43.051			-4.783
254201.000			-43.051			-4.783
254300.000			-43.050			-4.783
254400.000			-43.050			-4.783
254501.000			-43.051			-4.783
254601.000			-43.050			-4.783
254701.000			-43.050			-4.783
254801.000			-43.049			-4.783
254900.000			-43.048			-4.783
255000.000			-43.047			-4.783
255101.000			-43.046			-4.783
255200.000			-43.046			-4.783
255300.000			-43.046			-4.783
255401.000			-43.046			-4.783
255501.000			-43.045			-4.783
255601.000			-43.045			-4.783
255701.000			-43.045			-4.783
255800.000			-43.044			-4.783
255900.000			-43.044			-4.783
256001.000			-43.044			-4.783
256100.000			-43.043			-4.783
256200.000			-43.042			-4.782
256301.000			-43.042			-4.782
256401.000			-43.041			-4.782
256501.000			-43.041			-4.782
256601.000			-43.040			-4.782
256700.000			-43.040			-4.782
256801.000			-43.038			-4.782
256900.000			-43.039			-4.782
257000.000			-43.038			-4.782
257101.000			-43.037			-4.782
257200.000			-43.038			-4.782
257301.000			-43.038			-4.782
257402.000			-43.037			-4.782
257501.000			-43.037			-4.782
257600.000			-43.036			-4.782
257701.000			-43.036			-4.782
257800.000			-43.035			-4.782
257900.000			-43.035			-4.782
258001.000			-43.034			-4.782
258100.000			-43.034			-4.782
258200.000			-43.034			-4.782
258302.000			-43.033			-4.781
258401.000			-43.032			-4.781
258500.000			-43.033			-4.781
258601.000			-43.031			-4.781
258700.000			-43.031			-4.781
258800.000			-43.031			-4.781
258901.000			-43.030			-4.781
259000.000			-43.029			-4.781
259100.000			-43.028			-4.781
259202.000			-43.028			-4.781
259301.000			-43.029			-4.781
259400.000			-43.028			-4.781
259501.000			-43.027			-4.781
259600.000			-43.027			-4.781
259700.000			-43.025			-4.781
259801.000			-43.025			-4.781
259900.000			-43.026			-4.781
260001.000			-43.025			-4.781
260101.000			-43.024			-4.780
260201.000			-43.023			-4.780
260301.000			-43.023			-4.780
260400.000			-43.024			-4.780
260500.000			-43.023			-4.780
260601.000			-43.022			-4.780
260700.000			-43.021			-4.780
260800.000			-43.021			-4.780
260901.000			-43.021			-4.780
261001.000			-43.020			-4.780
261101.000			-43.021			-4.780
261201.000			-43.018			-4.780
261300.000			-43.018			-4.780
261400.000			-43.018			-4.780
261501.000			-43.019			-4.780
261600.000			-43.019			-4.780
261700.000			-43.018			-4.780
261801.000			-43.018			-4.780
261901.000			-43.017			-4.780
262001.000			-43.016			-4.780
262101.000			-43.016			-4.780
262200.000			-43.016			-4.780
262300.000			-43.015			-4.779
262401.000			-43.015			-4.779
262500.000			-43.014			-4.779
262600.000			-43.014			-4.779
262701.000			-43.013			-4.779
262801.000			-43.011			-4.779
262901.000			-43.012			-4.779
263001.000			-43.012			-4.779
263100.000			-43.011			-4.779
263201.000			-43.011			-4.779
263300.000			-43.011			-4.779
263400.000			-43.010			-4.779
263501.000			-43.010			-4.779
263600.000			-43.010			-4.779
263701.000			-43.009			-4.779
263802.000			-43.008			-4.779
263900.000			-43.008			-4.779
264000.000			-43.008			-4.779
264101.000			-43.007			-4.779
264200.000			-43.006			-4.778
264300.000			-43.006			-4.778
264401.000			-43.005			-4.778
264500.000			-43.006			-4.778
264601.000			-43.004			-4.778
264702.000			-43.005			-4.778
264800.000			-43.004			-4.778
264900.000			-43.004			-4.778
265001.000			-43.004			-4.778
265100.000			-43.003			-4.778
265200.000			-43.002			-4.778
265301.000			-43.001			-4.778
265401.000			-43.001			-4.778
265501.000			-43.000			-4.778
265602.000			-43.000			-4.778
265700.000			-42.999			-4.778
265800.000			-43.000			-4.778
265901.000			-42.999			-4.778
266000.000			-42.998			-4.778
266100.000			-42.997			-4.777
266201.000			-42.996			-4.777
266300.000			-42.997			-4.777
266402.000			-42.997			-4.777
266501.000			-42.997			-4.777
266601.000			-42.996			-4.777
266701.000			-42.995			-4.777
266800.000			-42.995			-4.777
266900.000			-42.994			-4.777
267001.000			-42.994			-4.777
267100.000			-42.993			-4.777
267200.000			-42.992			-4.777
267301.000			-42.993			-4.777
267401.000			-42.992			-4.777
267501.000			-42.992			-4.777
267602.000			-42.991			-4.777
267700.000			-42.991			-4.777
267800.000			-42.991			-4.777
267901.000			-42.991			-4.777
268000.000			-42.990			-4.777
268100.000			-42.990			-4.777
268201.000			-42.988			-4.776
268300.000			-42.989			-4.777
268401.000			-42.989			-4.777
268502.000			-42.986			-4.776
268601.000			-42.986			-4.776
268700.000			-42.986			-4.776
268801.000			-42.986			-4.776
268900.000			-42.986			-4.776
269000.000			-42.986			-4.776
269101.000			-42.985			-4.776
269200.000			-42.985			-4.776
269300.000			-42.985			-4.776
269402.000			-42.984			-4.776
269501.000			-42.982			-4.776
269602.000			-42.982			-4.776
269700.000			-42.982			-4.776
269800.000			-42.981			-4.776
269901.000			-42.981			-4.776
270000.000			-42.980			-4.776
270100.000			-42.980			-4.776
270201.000			-42.980			-4.776
270300.000			-42.980			-4.776
270401.000			-42.979			-4.775
270502.000			-42.979			-4.775
270601.000			-42.978			-4.775
270700.000			-42.978			-4.775
270801.000			-42.977			-4.775
270900.000			-42.976			-4.775
271000.000			-42.977			-4.775
271101.000			-42.977			-4.775
271200.000			-42.975			-4.775
271300.000			-42.975			-4.775
271402.000			-42.975			-4.775
271501.000			-42.973			-4.775
271600.000			-42.973			-4.775
271701.000			-42.972			-4.775
271800.000			-42.973			-4.775
271900.000			-42.973			-4.775
272001.000			-42.973			-4.775
272100.000			-42.971			-4.775
272200.000			-42.971			-4.775
272302.000			-42.971			-4.775
272401.000			-42.971			-4.775
272501.000			-42.970			-4.774
272601.000			-42.970			-4.774
272700.000			-42.970			-4.774
272801.000			-42.969			-4.774
272900.000			-42.968			-4.774
273000.000			-42.967			-4.774
273101.000			-42.967			-4.774
273200.000			-42.968			-4.774
273301.000			-42.967			-4.774
273402.000			-42.966			-4.774
273500.000			-42.966			-4.774
273600.000			-42.965			-4.774
273701.000			-42.965			-4.774
273800.000			-42.964			-4.774
273900.000			-42.964			-4.774
274001.000			-42.963			-4.774
274100.000			-42.963			-4.774
274201.000			-42.963			-4.774
274302.000			-42.963			-4.774
274401.000			-42.962			-4.774
274500.000			-42.962			-4.774
274601.000			-42.962			-4.774
274700.000			-42.961			-4.773
274800.000			-42.960			-4.773
274901.000			-42.960			-4.773
275000.000			-42.960			-4.773
275100.000			-42.959			-4.773
275202.000			-42.959			-4.773
275301.000			-42.958			-4.773
275401.000			-42.957			-4.773
275501.000			-42.957			-4.773
275600.000			-42.957			-4.773
275700.000			-42.957			-4.773
275801.000			-42.955			-4.773
275900.000			-42.955			-4.773
276001.000			-42.956			-4.773
276100.000			-42.955			-4.773
276201.000			-42.954			-4.773
276302.000			-42.954			-4.773
276401.000			-42.954			-4.773
276500.000			-42.953			-4.773
276601.000			-42.953			-4.773
276700.000			-42.953			-4.773
276800.000			-42.952			-4.772
276901.000			-42.951			-4.772
277000.000			-42.951			-4.772
277100.000			-42.950			-4.772
277202.000			-42.949			-4.772
277301.000			-42.949			-4.772
277400.000			-42.949			-4.772
277501.000			-42.949			-4.772
277600.000			-42.949			-4.772
277700.000			-42.949			-4.772
277801.000			-42.947			-4.772
277900.000			-42.947			-4.772
278000.000			-42.946			-4.772
278101.000			-42.946			-4.772
278201.000			-42.946			-4.772
278301.000			-42.945			-4.772
278401.000			-42.945			-4.772
278500.000			-42.944			-4.772
278600.000			-42.945			-4.772
278701.000			-42.943			-4.771
278800.000			-42.943			-4.771
278900.000			-42.942			-4.771
279001.000			-42.942			-4.771
279101.000			-42.942			-4.771
279202.000			-42.942			-4.771
279301.000			-42.942			-4.771
279400.000			-42.942			-4.771
279501.000			-42.941			-4.771
279600.000			-42.940			-4.771
279700.000			-42.939			-4.771
279801.000			-42.939			-4.771
279900.000			-42.939			-4.771
280000.000			-42.939			-4.771
280102.000			-42.939			-4.771
280201.000			-42.938			-4.771
280301.000			-42.937			-4.771
280401.000			-42.937			-4.771
280500.000			-42.935			-4.771
280600.000			-42.935			-4.771
280701.000			-42.936			-4.771
280800.000			-42.935			-4.771
280900.000			-42.934			-4.770
281001.000			-42.934			-4.770
281101.000			-42.934			-4.770
281201.000			-42.933			-4.770
281301.000			-42.933			-4.770
281400.000			-42.933			-4.770
281500.000			-42.931			-4.770
281601.000			-42.931			-4.770
281700.000			-42.932			-4.770
281800.000			-42.931			-4.770
281901.000			-42.931			-4.770
282001.000			-42.930			-4.770
282101.000			-42.929			-4.770
282201.000			-42.929			-4.770
282300.000			-42.930			-4.770
282401.000			-42.929			-4.770
282500.000			-42.929			-4.770
282600.000			-42.929			-4.770
282701.000			-42.928			-4.770
282800.000			-42.927			-4.770
282901.000			-42.927			-4.770
283002.000			-42.926			-4.770
283101.000			-42.925			-4.769
283200.000			-42.924			-4.769
283301.000			-42.925			-4.769
283400.000			-42.926			-4.770
283500.000			-42.924			-4.769
283601.000			-42.923			-4.769
283700.000			-42.923			-4.769
283800.000			-42.924			-4.769
283902.000			-42.923			-4.769
284001.000			-42.922			-4.769
284100.000			-42.922			-4.769
284201.000			-42.921			-4.769
284300.000			-42.921			-4.769
284400.000			-42.921			-4.769
284501.000			-42.919			-4.769
284600.000			-42.920			-4.769
284700.000			-42.920			-4.769
284802.000			-42.919			-4.769
284901.000			-42.919			-4.769
285001.000			-42.919			-4.769
285101.000			-42.918			-4.769
285200.000			-42.917			-4.769
285300.000			-42.916			-4.768
285401.000			-42.917			-4.769
285500.000			-42.916			-4.768
285601.000			-42.915			-4.768
285700.000			-42.914			-4.768
285801.000			-42.914			-4.768
285902.000			-42.914			-4.768
286001.000			-42.913			-4.768
286100.000			-42.913			-4.768
286201.000			-42.913			-4.768
286300.000			-42.914			-4.768
286400.000			-42.914			-4.768
286501.000			-42.913			-4.768
286600.000			-42.912			-4.768
286701.000			-42.910			-4.768
286802.000			-42.911			-4.768
286901.000			-42.911			-4.768
287000.000			-42.909			-4.768
287101.000			-42.909			-4.768
287200.000			-42.909			-4.768
287300.000			-42.909			-4.768
287401.000			-42.909			-4.768
287500.000			-42.907			-4.767
287600.000			-42.907			-4.767
287702.000			-42.907			-4.767
287801.000			-42.907			-4.767
287901.000			-42.906			-4.767
288001.000			-42.906			-4.767
288100.000			-42.905			-4.767
288200.000			-42.905			-4.767
288301.000			-42.904			-4.767
288400.000			-42.904			-4.767
288500.000			-42.904			-4.767
288601.000			-42.904			-4.767
288701.000			-42.903			-4.767
288802.000			-42.903			-4.767
288901.000			-42.903			-4.767
289000.000			-42.901			-4.767
289101.000			-42.901			-4.767
289200.000			-42.901			-4.767
289300.000			-42.901			-4.767
289401.000			-42.899			-4.767
289500.000			-42.899			-4.767
289600.000			-42.899			-4.767
289702.000			-42.897			-4.766
289801.000			-42.897			-4.766
289901.000			-42.897			-4.766
290001.000			-42.897			-4.766
290100.000			-42.897			-4.766
290200.000			-42.897			-4.766
290301.000			-42.897			-4.766
290400.000			-42.895			-4.766
290500.000			-42.896			-4.766
290601.000			-42.896			-4.766
290701.000			-42.895			-4.766
290801.000			-42.894			-4.766
290901.000			-42.894			-4.766
291000.000			-42.894			-4.766
291100.000			-42.894			-4.766
291201.000			-42.893			-4.766
291300.000			-42.892			-4.766
291400.000			-42.891			-4.766
291501.000			-42.891			-4.766
291601.000			-42.891			-4.766
291701.000			-42.890			-4.766
291802.000			-42.891			-4.766
291900.000			-42.890			-4.766
292001.000			-42.890			-4.766
292100.000			-42.889			-4.765
292200.000			-42.888			-4.765
292301.000			-42.888			-4.765
292400.000			-42.887			-4.765
292500.000			-42.887			-4.765
292602.000			-42.887			-4.765
292701.000			-42.886			-4.765
292801.000			-42.886			-4.765
292901.000			-42.885			-4.765
293000.000			-42.884			-4.765
293100.000			-42.885			-4.765
293201.000			-42.885			-4.765
293300.000			-42.883			-4.765
293400.000			-42.883			-4.765
293501.000			-42.882			-4.765
293601.000			-42.883			-4.765
293701.000			-42.883			-4.765
293802.000			-42.883			-4.765
293900.000			-42.882			-4.765
294000.000			-42.882			-4.765
294101.000			-42.880			-4.764
294200.000			-42.880			-4.764
294300.000			-42.881			-4.765
294401.000			-42.880			-4.764
294500.000			-42.879			-4.764
294601.000			-42.879			-4.764
294702.000			-42.880			-4.764
294801.000			-42.877			-4.764
294900.000			-42.878			-4.764
295001.000			-42.878			-4.764
295100.000			-42.877			-4.764
295201.000			-42.876			-4.764
295300.000			-42.876			-4.764
295400.000			-42.875			-4.764
295501.000			-42.874			-4.764
295601.000			-42.874			-4.764
295701.000			-42.875			-4.764
295802.000			-42.875			-4.764
295900.000			-42.874			-4.764
296000.000			-42.874			-4.764
296101.000			-42.872			-4.764
296200.000			-42.873			-4.764
296300.000			-42.871			-4.763
296401.000			-42.871			-4.763
296500.000			-42.871			-4.763
296601.000			-42.871			-4.763
296702.000			-42.871			-4.763
296800.000			-42.870			-4.763
296900.000			-42.870			-4.763
297001.000			-42.870			-4.763
297100.000			-42.870			-4.763
297200.000			-42.868			-4.763
297301.000			-42.868			-4.763
297400.000			-42.868			-4.763
297500.000			-42.868			-4.763
297602.000			-42.867			-4.763
297701.000			-42.868			-4.763
297800.000			-42.866			-4.763
297901.000			-42.865			-4.763
298000.000			-42.865			-4.763
298100.000			-42.866			-4.763
298201.000			-42.865			-4.763
298300.000			-42.864			-4.763
298401.000			-42.863			-4.763
298500.000			-42.863			-4.763
298601.000			-42.863			-4.763
298702.000			-42.861			-4.762
298801.000			-42.861			-4.762
298900.000			-42.862			-4.762
299001.000			-42.861			-4.762
299100.000			-42.862			-4.762
299200.000			-42.862			-4.762
299301.000			-42.860			-4.762
299400.000			-42.859			-4.762
299500.000			-42.858			-4.762
299602.000			-42.858			-4.762
299701.000			-42.859			-4.762
299800.000			-42.858			-4.762
299901.000			-42.857			-4.762
