# Acquired on 09/01/2024 16:00:02 
# SPIDER: Creep_10mm_07714532B-1
# CREEP MEASUREMENT

# time [ms]		force [N]		stiffness [N/mm]
1.000			-58.234			-5.823
101.000			-61.005			-6.100
202.000			-62.040			-6.204
300.000			-61.566			-6.157
400.000			-61.204			-6.120
501.000			-60.913			-6.091
600.000			-60.667			-6.067
700.000			-60.453			-6.045
802.000			-60.266			-6.027
901.000			-59.943			-5.994
1000.000			-59.804			-5.980
1101.000			-59.674			-5.967
1200.000			-59.556			-5.956
1300.000			-59.446			-5.945
1401.000			-59.341			-5.934
1500.000			-59.243			-5.924
1601.000			-59.152			-5.915
1702.000			-58.982			-5.898
1800.000			-58.904			-5.890
1900.000			-58.829			-5.883
2001.000			-58.758			-5.876
2100.000			-58.691			-5.869
2200.000			-58.625			-5.863
2301.000			-58.562			-5.856
2401.000			-58.444			-5.844
2501.000			-58.387			-5.839
2601.000			-58.333			-5.833
2700.000			-58.281			-5.828
2800.000			-58.229			-5.823
2901.000			-58.181			-5.818
3000.000			-58.134			-5.813
3100.000			-58.042			-5.804
3202.000			-57.999			-5.800
3301.000			-57.957			-5.796
3401.000			-57.915			-5.791
3500.000			-57.874			-5.787
3600.000			-57.835			-5.784
3701.000			-57.797			-5.780
3800.000			-57.723			-5.772
3900.000			-57.688			-5.769
4002.000			-57.653			-5.765
4101.000			-57.619			-5.762
4200.000			-57.586			-5.759
4301.000			-57.552			-5.755
4400.000			-57.520			-5.752
4500.000			-57.489			-5.749
4601.000			-57.429			-5.743
4700.000			-57.398			-5.740
4801.000			-57.369			-5.737
4902.000			-57.341			-5.734
5000.000			-57.313			-5.731
5100.000			-57.286			-5.729
5201.000			-57.259			-5.726
5300.000			-57.206			-5.721
5400.000			-57.179			-5.718
5502.000			-57.155			-5.715
5601.000			-57.131			-5.713
5700.000			-57.106			-5.711
5801.000			-57.082			-5.708
5900.000			-57.058			-5.706
6000.000			-57.012			-5.701
6101.000			-56.990			-5.699
6200.000			-56.967			-5.697
6302.000			-56.945			-5.695
6401.000			-56.923			-5.692
6500.000			-56.902			-5.690
6601.000			-56.881			-5.688
6700.000			-56.838			-5.684
6800.000			-56.819			-5.682
6901.000			-56.801			-5.680
7000.000			-56.780			-5.678
7101.000			-56.761			-5.676
7202.000			-56.741			-5.674
7300.000			-56.721			-5.672
7400.000			-56.704			-5.670
7501.000			-56.666			-5.667
7600.000			-56.649			-5.665
7700.000			-56.631			-5.663
7801.000			-56.613			-5.661
7901.000			-56.595			-5.659
8001.000			-56.578			-5.658
8101.000			-56.561			-5.656
8200.000			-56.527			-5.653
8300.000			-56.512			-5.651
8401.000			-56.496			-5.650
8500.000			-56.478			-5.648
8600.000			-56.463			-5.646
8702.000			-56.447			-5.645
8801.000			-56.431			-5.643
8900.000			-56.400			-5.640
9001.000			-56.385			-5.639
9100.000			-56.371			-5.637
9200.000			-56.355			-5.636
9301.000			-56.340			-5.634
9401.000			-56.326			-5.633
9502.000			-56.312			-5.631
9601.000			-56.283			-5.628
9700.000			-56.269			-5.627
9801.000			-56.257			-5.626
9900.000			-56.242			-5.624
10000.000			-56.228			-5.623
10101.000			-56.215			-5.621
10201.000			-56.201			-5.620
10301.000			-56.187			-5.619
10401.000			-56.161			-5.616
10500.000			-56.149			-5.615
10600.000			-56.136			-5.614
10701.000			-56.123			-5.612
10800.000			-56.110			-5.611
10900.000			-56.098			-5.610
11002.000			-56.086			-5.609
11101.000			-56.062			-5.606
11200.000			-56.049			-5.605
11301.000			-56.037			-5.604
11400.000			-56.026			-5.603
11500.000			-56.013			-5.601
11601.000			-56.001			-5.600
11700.000			-55.991			-5.599
11801.000			-55.967			-5.597
11902.000			-55.955			-5.596
12000.000			-55.945			-5.594
12100.000			-55.934			-5.593
12201.000			-55.922			-5.592
12300.000			-55.911			-5.591
12400.000			-55.900			-5.590
12501.000			-55.878			-5.588
12601.000			-55.868			-5.587
12702.000			-55.857			-5.586
12801.000			-55.846			-5.585
12900.000			-55.835			-5.583
13001.000			-55.826			-5.583
13100.000			-55.815			-5.582
13200.000			-55.803			-5.580
13301.000			-55.784			-5.578
13401.000			-55.774			-5.577
13501.000			-55.764			-5.576
13601.000			-55.754			-5.575
13700.000			-55.744			-5.574
13800.000			-55.734			-5.573
13901.000			-55.725			-5.572
14000.000			-55.706			-5.571
14100.000			-55.695			-5.569
14202.000			-55.686			-5.569
14301.000			-55.676			-5.568
14401.000			-55.667			-5.567
14501.000			-55.658			-5.566
14600.000			-55.649			-5.565
14700.000			-55.630			-5.563
14801.000			-55.622			-5.562
14900.000			-55.612			-5.561
15000.000			-55.603			-5.560
15102.000			-55.595			-5.559
15201.000			-55.585			-5.559
15300.000			-55.577			-5.558
15401.000			-55.559			-5.556
15500.000			-55.550			-5.555
15600.000			-55.541			-5.554
15701.000			-55.532			-5.553
15800.000			-55.522			-5.552
15902.000			-55.515			-5.552
16001.000			-55.507			-5.551
16100.000			-55.499			-5.550
16201.000			-55.482			-5.548
16300.000			-55.473			-5.547
16400.000			-55.466			-5.547
16501.000			-55.458			-5.546
16600.000			-55.449			-5.545
16701.000			-55.441			-5.544
16802.000			-55.433			-5.543
16900.000			-55.417			-5.542
17000.000			-55.409			-5.541
17101.000			-55.401			-5.540
17200.000			-55.394			-5.539
17300.000			-55.385			-5.539
17401.000			-55.378			-5.538
17501.000			-55.370			-5.537
17601.000			-55.353			-5.535
17701.000			-55.346			-5.535
17800.000			-55.339			-5.534
17900.000			-55.332			-5.533
18001.000			-55.324			-5.532
18100.000			-55.317			-5.532
18200.000			-55.310			-5.531
18302.000			-55.295			-5.530
18401.000			-55.288			-5.529
18500.000			-55.281			-5.528
18601.000			-55.274			-5.527
18700.000			-55.266			-5.527
18800.000			-55.258			-5.526
18901.000			-55.251			-5.525
19000.000			-55.245			-5.525
19102.000			-55.230			-5.523
19201.000			-55.223			-5.522
19301.000			-55.217			-5.522
19401.000			-55.210			-5.521
19500.000			-55.203			-5.520
19600.000			-55.196			-5.520
19701.000			-55.189			-5.519
19800.000			-55.176			-5.518
19900.000			-55.170			-5.517
20002.000			-55.164			-5.516
20101.000			-55.156			-5.516
20200.000			-55.148			-5.515
20301.000			-55.141			-5.514
20400.000			-55.134			-5.513
20500.000			-55.122			-5.512
20601.000			-55.116			-5.512
20701.000			-55.109			-5.511
20801.000			-55.103			-5.510
20901.000			-55.097			-5.510
21000.000			-55.090			-5.509
21100.000			-55.084			-5.508
21201.000			-55.071			-5.507
21300.000			-55.065			-5.506
21400.000			-55.058			-5.506
21502.000			-55.052			-5.505
21601.000			-55.046			-5.505
21700.000			-55.039			-5.504
21801.000			-55.034			-5.503
21900.000			-55.027			-5.503
22000.000			-55.014			-5.501
22101.000			-55.009			-5.501
22200.000			-55.003			-5.500
22302.000			-54.997			-5.500
22401.000			-54.990			-5.499
22500.000			-54.984			-5.498
22601.000			-54.978			-5.498
22700.000			-54.967			-5.497
22800.000			-54.961			-5.496
22901.000			-54.955			-5.496
23000.000			-54.950			-5.495
23101.000			-54.945			-5.494
23202.000			-54.939			-5.494
23300.000			-54.933			-5.493
23400.000			-54.921			-5.492
23501.000			-54.916			-5.492
23600.000			-54.910			-5.491
23700.000			-54.904			-5.490
23801.000			-54.898			-5.490
23901.000			-54.892			-5.489
24001.000			-54.887			-5.489
24101.000			-54.875			-5.487
24200.000			-54.869			-5.487
24300.000			-54.865			-5.486
24401.000			-54.859			-5.486
24500.000			-54.854			-5.485
24600.000			-54.848			-5.485
24701.000			-54.842			-5.484
24801.000			-54.831			-5.483
24901.000			-54.827			-5.483
25001.000			-54.822			-5.482
25100.000			-54.816			-5.482
25200.000			-54.811			-5.481
25301.000			-54.806			-5.481
25400.000			-54.800			-5.480
25500.000			-54.795			-5.479
25602.000			-54.785			-5.479
25701.000			-54.780			-5.478
25801.000			-54.774			-5.477
25900.000			-54.769			-5.477
26000.000			-54.764			-5.476
26101.000			-54.759			-5.476
26200.000			-54.753			-5.475
26300.000			-54.742			-5.474
26402.000			-54.738			-5.474
26501.000			-54.733			-5.473
26600.000			-54.729			-5.473
26701.000			-54.722			-5.472
26800.000			-54.717			-5.472
26900.000			-54.713			-5.471
27001.000			-54.704			-5.470
27100.000			-54.699			-5.470
27201.000			-54.694			-5.469
27302.000			-54.690			-5.469
27401.000			-54.685			-5.469
27500.000			-54.680			-5.468
27601.000			-54.674			-5.467
27700.000			-54.665			-5.466
27800.000			-54.660			-5.466
27901.000			-54.655			-5.466
28000.000			-54.650			-5.465
28101.000			-54.645			-5.464
28202.000			-54.640			-5.464
28300.000			-54.636			-5.464
28400.000			-54.631			-5.463
28501.000			-54.622			-5.462
28600.000			-54.618			-5.462
28700.000			-54.613			-5.461
28800.000			-54.608			-5.461
28901.000			-54.603			-5.460
29002.000			-54.597			-5.460
29100.000			-54.594			-5.459
29200.000			-54.587			-5.459
29301.000			-54.581			-5.458
29400.000			-54.575			-5.458
29500.000			-54.571			-5.457
29601.000			-54.567			-5.457
29701.000			-54.563			-5.456
29801.000			-54.559			-5.456
29901.000			-54.547			-5.455
30000.000			-54.544			-5.454
30100.000			-54.540			-5.454
30201.000			-54.535			-5.454
30300.000			-54.529			-5.453
30400.000			-54.525			-5.453
30502.000			-54.523			-5.452
30601.000			-54.513			-5.451
30700.000			-54.509			-5.451
30801.000			-54.505			-5.450
30900.000			-54.501			-5.450
31000.000			-54.496			-5.450
31101.000			-54.491			-5.449
31200.000			-54.487			-5.449
31301.000			-54.483			-5.448
31402.000			-54.474			-5.447
31500.000			-54.470			-5.447
31600.000			-54.466			-5.447
31701.000			-54.462			-5.446
31800.000			-54.458			-5.446
31900.000			-54.454			-5.445
32000.000			-54.451			-5.445
32101.000			-54.441			-5.444
32202.000			-54.438			-5.444
32300.000			-54.434			-5.443
32400.000			-54.428			-5.443
32501.000			-54.424			-5.442
32600.000			-54.420			-5.442
32700.000			-54.416			-5.442
32801.000			-54.409			-5.441
32901.000			-54.406			-5.441
33001.000			-54.401			-5.440
33101.000			-54.396			-5.440
33200.000			-54.392			-5.439
33300.000			-54.387			-5.439
33401.000			-54.384			-5.438
33500.000			-54.377			-5.438
33600.000			-54.372			-5.437
33702.000			-54.370			-5.437
33801.000			-54.365			-5.437
33900.000			-54.361			-5.436
34001.000			-54.357			-5.436
34100.000			-54.353			-5.435
34200.000			-54.348			-5.435
34301.000			-54.341			-5.434
34401.000			-54.337			-5.434
34501.000			-54.334			-5.433
34602.000			-54.330			-5.433
34700.000			-54.326			-5.433
34800.000			-54.322			-5.432
34901.000			-54.317			-5.432
35000.000			-54.310			-5.431
35100.000			-54.306			-5.431
35202.000			-54.303			-5.430
35301.000			-54.299			-5.430
35401.000			-54.295			-5.430
35500.000			-54.292			-5.429
35600.000			-54.289			-5.429
35701.000			-54.281			-5.428
35800.000			-54.277			-5.428
35900.000			-54.273			-5.427
36001.000			-54.269			-5.427
36101.000			-54.265			-5.426
36201.000			-54.262			-5.426
36301.000			-54.258			-5.426
36400.000			-54.252			-5.425
36500.000			-54.248			-5.425
36601.000			-54.245			-5.424
36700.000			-54.240			-5.424
36800.000			-54.237			-5.424
36902.000			-54.232			-5.423
37001.000			-54.228			-5.423
37100.000			-54.225			-5.422
37201.000			-54.218			-5.422
37300.000			-54.215			-5.421
37400.000			-54.211			-5.421
37501.000			-54.208			-5.421
37600.000			-54.205			-5.421
37701.000			-54.202			-5.420
37802.000			-54.198			-5.420
37900.000			-54.191			-5.419
38000.000			-54.187			-5.419
38101.000			-54.183			-5.418
38200.000			-54.179			-5.418
38300.000			-54.176			-5.418
38400.000			-54.174			-5.417
38501.000			-54.170			-5.417
38602.000			-54.163			-5.416
38700.000			-54.160			-5.416
38800.000			-54.156			-5.416
38901.000			-54.152			-5.415
39000.000			-54.149			-5.415
39100.000			-54.145			-5.415
39201.000			-54.143			-5.414
39301.000			-54.136			-5.414
39401.000			-54.132			-5.413
39501.000			-54.128			-5.413
39600.000			-54.125			-5.413
39700.000			-54.123			-5.412
39801.000			-54.120			-5.412
39900.000			-54.115			-5.412
40000.000			-54.112			-5.411
40102.000			-54.106			-5.411
40201.000			-54.102			-5.410
40300.000			-54.099			-5.410
40401.000			-54.095			-5.410
40500.000			-54.092			-5.409
40600.000			-54.089			-5.409
40701.000			-54.086			-5.409
40801.000			-54.078			-5.408
40901.000			-54.077			-5.408
41002.000			-54.073			-5.407
41100.000			-54.069			-5.407
41200.000			-54.065			-5.407
41301.000			-54.062			-5.406
41400.000			-54.059			-5.406
41500.000			-54.052			-5.405
41602.000			-54.050			-5.405
41701.000			-54.046			-5.405
41801.000			-54.043			-5.404
41900.000			-54.040			-5.404
42000.000			-54.037			-5.404
42101.000			-54.034			-5.403
42200.000			-54.027			-5.403
42300.000			-54.025			-5.402
42402.000			-54.022			-5.402
42501.000			-54.018			-5.402
42600.000			-54.015			-5.402
42701.000			-54.012			-5.401
42800.000			-54.009			-5.401
42900.000			-54.006			-5.401
43001.000			-54.000			-5.400
43100.000			-53.997			-5.400
43201.000			-53.993			-5.399
43302.000			-53.990			-5.399
43400.000			-53.986			-5.399
43500.000			-53.983			-5.398
43601.000			-53.981			-5.398
43700.000			-53.974			-5.397
43800.000			-53.972			-5.397
43901.000			-53.970			-5.397
44001.000			-53.966			-5.397
44101.000			-53.962			-5.396
44201.000			-53.959			-5.396
44300.000			-53.957			-5.396
44400.000			-53.951			-5.395
44501.000			-53.948			-5.395
44600.000			-53.943			-5.394
44700.000			-53.940			-5.394
44802.000			-53.938			-5.394
44901.000			-53.935			-5.394
45002.000			-53.931			-5.393
45100.000			-53.927			-5.393
45200.000			-53.923			-5.392
45301.000			-53.921			-5.392
45400.000			-53.918			-5.392
45500.000			-53.914			-5.391
45601.000			-53.911			-5.391
45701.000			-53.909			-5.391
45801.000			-53.902			-5.390
45901.000			-53.899			-5.390
46000.000			-53.897			-5.390
46100.000			-53.894			-5.389
46201.000			-53.891			-5.389
46300.000			-53.888			-5.389
46400.000			-53.885			-5.389
46502.000			-53.883			-5.388
46601.000			-53.876			-5.388
46700.000			-53.874			-5.387
46801.000			-53.871			-5.387
46900.000			-53.868			-5.387
47000.000			-53.865			-5.387
47101.000			-53.863			-5.386
47200.000			-53.860			-5.386
47301.000			-53.854			-5.385
47402.000			-53.851			-5.385
47501.000			-53.848			-5.385
47600.000			-53.846			-5.385
47701.000			-53.843			-5.384
47800.000			-53.840			-5.384
47900.000			-53.838			-5.384
48000.000			-53.832			-5.383
48100.000			-53.829			-5.383
48202.000			-53.826			-5.383
48301.000			-53.824			-5.382
48400.000			-53.821			-5.382
48501.000			-53.818			-5.382
48600.000			-53.816			-5.382
48700.000			-53.811			-5.381
48801.000			-53.808			-5.381
48900.000			-53.804			-5.380
49001.000			-53.801			-5.380
49102.000			-53.799			-5.380
49200.000			-53.796			-5.380
49300.000			-53.793			-5.379
49401.000			-53.789			-5.379
49500.000			-53.786			-5.379
49600.000			-53.782			-5.378
49701.000			-53.778			-5.378
49801.000			-53.776			-5.378
49901.000			-53.774			-5.377
50001.000			-53.771			-5.377
50100.000			-53.768			-5.377
50200.000			-53.763			-5.376
50301.000			-53.760			-5.376
50400.000			-53.758			-5.376
50500.000			-53.756			-5.376
50602.000			-53.753			-5.375
50701.000			-53.751			-5.375
50800.000			-53.748			-5.375
50901.000			-53.743			-5.374
51000.000			-53.740			-5.374
51100.000			-53.737			-5.374
51200.000			-53.735			-5.373
51300.000			-53.732			-5.373
51402.000			-53.729			-5.373
51501.000			-53.727			-5.373
51600.000			-53.721			-5.372
51701.000			-53.719			-5.372
51800.000			-53.717			-5.372
51900.000			-53.714			-5.371
52001.000			-53.712			-5.371
52100.000			-53.709			-5.371
52201.000			-53.706			-5.371
52302.000			-53.703			-5.370
52400.000			-53.698			-5.370
52500.000			-53.695			-5.370
52601.000			-53.693			-5.369
52700.000			-53.692			-5.369
52800.000			-53.688			-5.369
52901.000			-53.684			-5.368
53001.000			-53.683			-5.368
53101.000			-53.679			-5.368
53201.000			-53.676			-5.368
53300.000			-53.673			-5.367
53400.000			-53.671			-5.367
53501.000			-53.669			-5.367
53600.000			-53.667			-5.367
53700.000			-53.664			-5.366
53802.000			-53.659			-5.366
53901.000			-53.657			-5.366
54000.000			-53.654			-5.365
54101.000			-53.652			-5.365
54200.000			-53.649			-5.365
54300.000			-53.645			-5.365
54400.000			-53.643			-5.364
54500.000			-53.641			-5.364
54602.000			-53.636			-5.364
54701.000			-53.634			-5.363
54800.000			-53.630			-5.363
54901.000			-53.628			-5.363
55000.000			-53.626			-5.363
55100.000			-53.624			-5.362
55201.000			-53.621			-5.362
55300.000			-53.617			-5.362
55401.000			-53.614			-5.361
55502.000			-53.612			-5.361
55600.000			-53.609			-5.361
55700.000			-53.607			-5.361
55801.000			-53.604			-5.360
55900.000			-53.602			-5.360
56000.000			-53.598			-5.360
56101.000			-53.594			-5.359
56201.000			-53.593			-5.359
56301.000			-53.592			-5.359
56401.000			-53.589			-5.359
56500.000			-53.585			-5.359
56600.000			-53.583			-5.358
56701.000			-53.579			-5.358
56800.000			-53.578			-5.358
56900.000			-53.575			-5.357
57002.000			-53.572			-5.357
57101.000			-53.569			-5.357
57200.000			-53.567			-5.357
57301.000			-53.566			-5.357
57400.000			-53.563			-5.356
57500.000			-53.558			-5.356
57600.000			-53.556			-5.356
57700.000			-53.555			-5.355
57801.000			-53.553			-5.355
57901.000			-53.550			-5.355
58001.000			-53.548			-5.355
58101.000			-53.546			-5.355
58200.000			-53.542			-5.354
58300.000			-53.539			-5.354
58401.000			-53.538			-5.354
58500.000			-53.535			-5.353
58600.000			-53.532			-5.353
58702.000			-53.530			-5.353
58801.000			-53.528			-5.353
58900.000			-53.524			-5.352
59001.000			-53.521			-5.352
59100.000			-53.519			-5.352
59200.000			-53.517			-5.352
59301.000			-53.515			-5.351
59400.000			-53.513			-5.351
59501.000			-53.511			-5.351
59602.000			-53.504			-5.350
59700.000			-53.502			-5.350
59800.000			-53.500			-5.350
59901.000			-53.498			-5.350
60000.000			-53.496			-5.350
60100.000			-53.493			-5.349
60201.000			-53.491			-5.349
60301.000			-53.489			-5.349
60401.000			-53.485			-5.349
60501.000			-53.483			-5.348
60600.000			-53.482			-5.348
60700.000			-53.479			-5.348
60800.000			-53.476			-5.348
60900.000			-53.474			-5.347
61001.000			-53.473			-5.347
61101.000			-53.468			-5.347
61201.000			-53.467			-5.347
61301.000			-53.465			-5.347
61400.000			-53.462			-5.346
61500.000			-53.459			-5.346
61601.000			-53.458			-5.346
61700.000			-53.455			-5.345
61800.000			-53.450			-5.345
61902.000			-53.448			-5.345
62001.000			-53.446			-5.345
62100.000			-53.444			-5.344
62201.000			-53.443			-5.344
62300.000			-53.440			-5.344
62400.000			-53.437			-5.344
62501.000			-53.435			-5.343
62600.000			-53.431			-5.343
62701.000			-53.428			-5.343
62802.000			-53.426			-5.343
62900.000			-53.425			-5.343
63000.000			-53.423			-5.342
63101.000			-53.420			-5.342
63200.000			-53.418			-5.342
63300.000			-53.414			-5.341
63401.000			-53.412			-5.341
63501.000			-53.410			-5.341
63601.000			-53.408			-5.341
63701.000			-53.405			-5.341
63800.000			-53.403			-5.340
63900.000			-53.402			-5.340
64000.000			-53.397			-5.340
64100.000			-53.395			-5.339
64201.000			-53.393			-5.339
64301.000			-53.391			-5.339
64401.000			-53.389			-5.339
64501.000			-53.387			-5.339
64600.000			-53.386			-5.339
64700.000			-53.381			-5.338
64801.000			-53.379			-5.338
64900.000			-53.377			-5.338
65000.000			-53.375			-5.337
65102.000			-53.373			-5.337
65201.000			-53.371			-5.337
65300.000			-53.368			-5.337
65401.000			-53.364			-5.336
65500.000			-53.363			-5.336
65600.000			-53.361			-5.336
65701.000			-53.359			-5.336
65800.000			-53.357			-5.336
65901.000			-53.355			-5.336
66002.000			-53.353			-5.335
66100.000			-53.351			-5.335
66200.000			-53.348			-5.335
66301.000			-53.345			-5.335
66400.000			-53.343			-5.334
66500.000			-53.341			-5.334
66601.000			-53.339			-5.334
66701.000			-53.337			-5.334
66801.000			-53.335			-5.334
66901.000			-53.331			-5.333
67000.000			-53.329			-5.333
67100.000			-53.328			-5.333
67200.000			-53.325			-5.332
67300.000			-53.323			-5.332
67401.000			-53.321			-5.332
67501.000			-53.319			-5.332
67601.000			-53.316			-5.332
67702.000			-53.313			-5.331
67800.000			-53.312			-5.331
67900.000			-53.311			-5.331
68001.000			-53.308			-5.331
68100.000			-53.306			-5.331
68200.000			-53.303			-5.330
68301.000			-53.300			-5.330
68401.000			-53.298			-5.330
68501.000			-53.296			-5.330
68601.000			-53.295			-5.329
68700.000			-53.292			-5.329
68800.000			-53.291			-5.329
68901.000			-53.289			-5.329
69000.000			-53.286			-5.329
69100.000			-53.282			-5.328
69202.000			-53.280			-5.328
69301.000			-53.279			-5.328
69400.000			-53.278			-5.328
69501.000			-53.275			-5.328
69600.000			-53.274			-5.327
69700.000			-53.271			-5.327
69801.000			-53.268			-5.327
69900.000			-53.266			-5.327
70000.000			-53.264			-5.326
70102.000			-53.262			-5.326
70201.000			-53.261			-5.326
70300.000			-53.259			-5.326
70400.000			-53.256			-5.326
70500.000			-53.253			-5.325
70601.000			-53.251			-5.325
70700.000			-53.249			-5.325
70801.000			-53.247			-5.325
70902.000			-53.244			-5.324
71001.000			-53.242			-5.324
71100.000			-53.241			-5.324
71201.000			-53.237			-5.324
71300.000			-53.236			-5.324
71400.000			-53.235			-5.323
71501.000			-53.232			-5.323
71601.000			-53.230			-5.323
71701.000			-53.228			-5.323
71801.000			-53.226			-5.323
71900.000			-53.225			-5.323
72000.000			-53.221			-5.322
72101.000			-53.219			-5.322
72200.000			-53.218			-5.322
72300.000			-53.216			-5.322
72402.000			-53.215			-5.321
72501.000			-53.212			-5.321
72600.000			-53.210			-5.321
72701.000			-53.207			-5.321
72800.000			-53.205			-5.320
72900.000			-53.203			-5.320
73001.000			-53.201			-5.320
73100.000			-53.199			-5.320
73201.000			-53.198			-5.320
73302.000			-53.195			-5.319
73400.000			-53.192			-5.319
73500.000			-53.189			-5.319
73600.000			-53.188			-5.319
73700.000			-53.186			-5.319
73801.000			-53.184			-5.318
73900.000			-53.183			-5.318
74000.000			-53.181			-5.318
74102.000			-53.177			-5.318
74201.000			-53.175			-5.318
74300.000			-53.173			-5.317
74401.000			-53.172			-5.317
74500.000			-53.170			-5.317
74600.000			-53.168			-5.317
74701.000			-53.166			-5.317
74800.000			-53.164			-5.316
74901.000			-53.162			-5.316
75002.000			-53.160			-5.316
75100.000			-53.158			-5.316
75200.000			-53.155			-5.316
75301.000			-53.154			-5.315
75400.000			-53.153			-5.315
75500.000			-53.151			-5.315
75601.000			-53.147			-5.315
75701.000			-53.146			-5.315
75801.000			-53.144			-5.314
75901.000			-53.141			-5.314
76000.000			-53.140			-5.314
76100.000			-53.139			-5.314
76201.000			-53.136			-5.314
76300.000			-53.133			-5.313
76400.000			-53.131			-5.313
76502.000			-53.130			-5.313
76601.000			-53.129			-5.313
76700.000			-53.127			-5.313
76800.000			-53.124			-5.312
76900.000			-53.122			-5.312
77001.000			-53.120			-5.312
77100.000			-53.118			-5.312
77200.000			-53.115			-5.312
77302.000			-53.113			-5.311
77401.000			-53.111			-5.311
77500.000			-53.110			-5.311
77601.000			-53.108			-5.311
77700.000			-53.106			-5.311
77800.000			-53.104			-5.310
77901.000			-53.102			-5.310
78000.000			-53.101			-5.310
78101.000			-53.098			-5.310
78202.000			-53.096			-5.310
78301.000			-53.094			-5.309
78400.000			-53.093			-5.309
78501.000			-53.090			-5.309
78600.000			-53.088			-5.309
78700.000			-53.087			-5.309
78801.000			-53.085			-5.309
78900.000			-53.083			-5.308
79001.000			-53.082			-5.308
79102.000			-53.080			-5.308
79200.000			-53.076			-5.308
79300.000			-53.074			-5.307
79401.000			-53.073			-5.307
79500.000			-53.072			-5.307
79600.000			-53.069			-5.307
79701.000			-53.068			-5.307
79801.000			-53.066			-5.307
79902.000			-53.062			-5.306
80000.000			-53.060			-5.306
80100.000			-53.060			-5.306
80201.000			-53.059			-5.306
80300.000			-53.056			-5.306
80400.000			-53.055			-5.305
80501.000			-53.053			-5.305
80601.000			-53.050			-5.305
80701.000			-53.047			-5.305
80802.000			-53.046			-5.305
80900.000			-53.045			-5.304
81000.000			-53.043			-5.304
81101.000			-53.042			-5.304
81200.000			-53.039			-5.304
81300.000			-53.038			-5.304
81402.000			-53.035			-5.303
81501.000			-53.033			-5.303
81601.000			-53.030			-5.303
81701.000			-53.029			-5.303
81800.000			-53.028			-5.303
81900.000			-53.026			-5.303
82001.000			-53.024			-5.302
82100.000			-53.021			-5.302
82201.000			-53.019			-5.302
82302.000			-53.018			-5.302
82401.000			-53.017			-5.302
82500.000			-53.016			-5.302
82601.000			-53.014			-5.301
82700.000			-53.012			-5.301
82800.000			-53.008			-5.301
82901.000			-53.007			-5.301
83001.000			-53.005			-5.301
83102.000			-53.003			-5.300
83201.000			-53.001			-5.300
83300.000			-53.000			-5.300
83401.000			-52.998			-5.300
83500.000			-52.996			-5.300
83600.000			-52.994			-5.299
83701.000			-52.992			-5.299
83800.000			-52.992			-5.299
83901.000			-52.990			-5.299
84002.000			-52.988			-5.299
84100.000			-52.986			-5.299
84200.000			-52.985			-5.299
84301.000			-52.982			-5.298
84400.000			-52.980			-5.298
84500.000			-52.978			-5.298
84601.000			-52.978			-5.298
84700.000			-52.976			-5.298
84801.000			-52.974			-5.297
84902.000			-52.973			-5.297
85000.000			-52.970			-5.297
85100.000			-52.968			-5.297
85201.000			-52.966			-5.297
85300.000			-52.965			-5.296
85400.000			-52.963			-5.296
85501.000			-52.960			-5.296
85601.000			-52.959			-5.296
85701.000			-52.957			-5.296
85801.000			-52.955			-5.296
85900.000			-52.954			-5.295
86000.000			-52.952			-5.295
86101.000			-52.951			-5.295
86200.000			-52.949			-5.295
86300.000			-52.948			-5.295
86400.000			-52.945			-5.295
86501.000			-52.944			-5.294
86602.000			-52.942			-5.294
86700.000			-52.940			-5.294
86800.000			-52.938			-5.294
86901.000			-52.937			-5.294
87000.000			-52.935			-5.294
87100.000			-52.934			-5.293
87201.000			-52.932			-5.293
87301.000			-52.930			-5.293
87401.000			-52.928			-5.293
87501.000			-52.926			-5.293
87600.000			-52.924			-5.292
87700.000			-52.923			-5.292
87801.000			-52.922			-5.292
87900.000			-52.919			-5.292
88000.000			-52.918			-5.292
88101.000			-52.915			-5.292
88201.000			-52.914			-5.291
88301.000			-52.913			-5.291
88401.000			-52.912			-5.291
88500.000			-52.911			-5.291
88600.000			-52.907			-5.291
88701.000			-52.906			-5.291
88800.000			-52.905			-5.290
88900.000			-52.902			-5.290
89002.000			-52.900			-5.290
89101.000			-52.900			-5.290
89200.000			-52.898			-5.290
89301.000			-52.895			-5.289
89400.000			-52.894			-5.289
89500.000			-52.893			-5.289
89600.000			-52.891			-5.289
89700.000			-52.889			-5.289
89801.000			-52.888			-5.289
89901.000			-52.886			-5.289
90001.000			-52.885			-5.288
90101.000			-52.881			-5.288
90200.000			-52.881			-5.288
90300.000			-52.879			-5.288
90401.000			-52.877			-5.288
90500.000			-52.876			-5.288
90600.000			-52.874			-5.287
90702.000			-52.873			-5.287
90801.000			-52.870			-5.287
90901.000			-52.868			-5.287
91001.000			-52.867			-5.287
91100.000			-52.866			-5.287
91200.000			-52.863			-5.286
91301.000			-52.862			-5.286
91400.000			-52.861			-5.286
91500.000			-52.859			-5.286
91602.000			-52.857			-5.286
91701.000			-52.855			-5.286
91800.000			-52.854			-5.285
91901.000			-52.852			-5.285
92000.000			-52.851			-5.285
92100.000			-52.850			-5.285
92201.000			-52.846			-5.285
92300.000			-52.845			-5.285
92401.000			-52.844			-5.284
92502.000			-52.842			-5.284
92600.000			-52.841			-5.284
92700.000			-52.840			-5.284
92800.000			-52.839			-5.284
92900.000			-52.837			-5.284
93001.000			-52.834			-5.283
93100.000			-52.831			-5.283
93200.000			-52.831			-5.283
93302.000			-52.830			-5.283
93401.000			-52.828			-5.283
93500.000			-52.827			-5.283
93601.000			-52.825			-5.283
93700.000			-52.822			-5.282
93800.000			-52.821			-5.282
93901.000			-52.820			-5.282
94000.000			-52.819			-5.282
94101.000			-52.817			-5.282
94202.000			-52.815			-5.282
94300.000			-52.813			-5.281
94400.000			-52.811			-5.281
94501.000			-52.809			-5.281
94600.000			-52.807			-5.281
94700.000			-52.806			-5.281
94801.000			-52.806			-5.281
94901.000			-52.805			-5.281
95001.000			-52.804			-5.280
95101.000			-52.800			-5.280
95200.000			-52.800			-5.280
95300.000			-52.797			-5.280
95401.000			-52.796			-5.280
95500.000			-52.795			-5.280
95600.000			-52.792			-5.279
95702.000			-52.791			-5.279
95801.000			-52.791			-5.279
95902.000			-52.787			-5.279
96000.000			-52.785			-5.279
96100.000			-52.784			-5.278
96201.000			-52.783			-5.278
96300.000			-52.781			-5.278
96400.000			-52.780			-5.278
96501.000			-52.779			-5.278
96601.000			-52.776			-5.278
96701.000			-52.775			-5.277
96801.000			-52.773			-5.277
96900.000			-52.773			-5.277
97000.000			-52.772			-5.277
97101.000			-52.770			-5.277
97200.000			-52.768			-5.277
97300.000			-52.766			-5.277
97402.000			-52.764			-5.276
97501.000			-52.762			-5.276
97601.000			-52.762			-5.276
97701.000			-52.761			-5.276
97800.000			-52.759			-5.276
97900.000			-52.758			-5.276
98001.000			-52.755			-5.275
98100.000			-52.753			-5.275
98200.000			-52.752			-5.275
98302.000			-52.751			-5.275
98401.000			-52.749			-5.275
98500.000			-52.748			-5.275
98601.000			-52.747			-5.275
98700.000			-52.745			-5.275
98800.000			-52.742			-5.274
98901.000			-52.742			-5.274
99000.000			-52.742			-5.274
99102.000			-52.740			-5.274
99201.000			-52.738			-5.274
99301.000			-52.736			-5.274
99401.000			-52.735			-5.273
99500.000			-52.732			-5.273
99600.000			-52.731			-5.273
99701.000			-52.730			-5.273
99800.000			-52.728			-5.273
99900.000			-52.726			-5.273
100002.000			-52.726			-5.273
100101.000			-52.726			-5.273
100200.000			-52.721			-5.272
100301.000			-52.720			-5.272
100400.000			-52.719			-5.272
100500.000			-52.718			-5.272
100601.000			-52.717			-5.272
100700.000			-52.715			-5.271
100801.000			-52.714			-5.271
100902.000			-52.711			-5.271
101000.000			-52.709			-5.271
101100.000			-52.708			-5.271
101201.000			-52.706			-5.271
101300.000			-52.705			-5.270
101400.000			-52.703			-5.270
101501.000			-52.702			-5.270
101601.000			-52.701			-5.270
101701.000			-52.699			-5.270
101801.000			-52.697			-5.270
101900.000			-52.697			-5.270
102000.000			-52.695			-5.270
102101.000			-52.693			-5.269
102200.000			-52.692			-5.269
102300.000			-52.691			-5.269
102402.000			-52.688			-5.269
102501.000			-52.687			-5.269
102602.000			-52.685			-5.269
102700.000			-52.684			-5.268
102800.000			-52.682			-5.268
102901.000			-52.682			-5.268
103000.000			-52.681			-5.268
103100.000			-52.677			-5.268
103201.000			-52.676			-5.268
103301.000			-52.676			-5.268
103401.000			-52.674			-5.267
103501.000			-52.672			-5.267
103600.000			-52.671			-5.267
103700.000			-52.671			-5.267
103801.000			-52.668			-5.267
103900.000			-52.667			-5.267
104000.000			-52.665			-5.267
104102.000			-52.663			-5.266
104201.000			-52.663			-5.266
104300.000			-52.661			-5.266
104401.000			-52.660			-5.266
104500.000			-52.659			-5.266
104600.000			-52.655			-5.266
104701.000			-52.654			-5.265
104800.000			-52.653			-5.265
104900.000			-52.652			-5.265
105002.000			-52.650			-5.265
105101.000			-52.650			-5.265
105200.000			-52.649			-5.265
105301.000			-52.646			-5.265
105400.000			-52.644			-5.264
105500.000			-52.643			-5.264
105600.000			-52.642			-5.264
105700.000			-52.640			-5.264
105802.000			-52.639			-5.264
105901.000			-52.637			-5.264
106000.000			-52.637			-5.264
106101.000			-52.634			-5.263
106200.000			-52.633			-5.263
106300.000			-52.632			-5.263
106401.000			-52.631			-5.263
106500.000			-52.630			-5.263
106601.000			-52.628			-5.263
106702.000			-52.627			-5.263
106801.000			-52.626			-5.263
106900.000			-52.624			-5.262
107001.000			-52.622			-5.262
107100.000			-52.621			-5.262
107200.000			-52.620			-5.262
107301.000			-52.618			-5.262
107400.000			-52.617			-5.262
107501.000			-52.615			-5.262
107602.000			-52.613			-5.261
107700.000			-52.613			-5.261
107800.000			-52.611			-5.261
107901.000			-52.610			-5.261
108000.000			-52.609			-5.261
108100.000			-52.607			-5.261
108201.000			-52.605			-5.261
108301.000			-52.605			-5.260
108401.000			-52.603			-5.260
108502.000			-52.602			-5.260
108600.000			-52.600			-5.260
108700.000			-52.599			-5.260
108800.000			-52.598			-5.260
108900.000			-52.596			-5.260
109001.000			-52.594			-5.259
109100.000			-52.593			-5.259
109201.000			-52.592			-5.259
109302.000			-52.590			-5.259
109400.000			-52.589			-5.259
109500.000			-52.589			-5.259
109601.000			-52.585			-5.259
109700.000			-52.585			-5.259
109800.000			-52.584			-5.258
109901.000			-52.582			-5.258
110000.000			-52.581			-5.258
110101.000			-52.580			-5.258
110202.000			-52.580			-5.258
110300.000			-52.578			-5.258
110400.000			-52.575			-5.258
110501.000			-52.574			-5.257
110600.000			-52.573			-5.257
110700.000			-52.571			-5.257
110801.000			-52.570			-5.257
110901.000			-52.569			-5.257
111001.000			-52.568			-5.257
111101.000			-52.565			-5.256
111200.000			-52.564			-5.256
111300.000			-52.563			-5.256
111401.000			-52.561			-5.256
111500.000			-52.560			-5.256
111600.000			-52.559			-5.256
111701.000			-52.558			-5.256
111801.000			-52.556			-5.256
111902.000			-52.554			-5.255
112000.000			-52.554			-5.255
112100.000			-52.552			-5.255
112201.000			-52.550			-5.255
112300.000			-52.550			-5.255
112400.000			-52.549			-5.255
112501.000			-52.546			-5.255
112601.000			-52.545			-5.254
112701.000			-52.543			-5.254
112801.000			-52.542			-5.254
112900.000			-52.542			-5.254
113000.000			-52.541			-5.254
113101.000			-52.539			-5.254
113200.000			-52.537			-5.254
113300.000			-52.536			-5.254
113402.000			-52.535			-5.253
113501.000			-52.533			-5.253
113600.000			-52.533			-5.253
113701.000			-52.532			-5.253
113800.000			-52.532			-5.253
113900.000			-52.531			-5.253
114001.000			-52.527			-5.253
114100.000			-52.525			-5.253
114200.000			-52.524			-5.252
114302.000			-52.524			-5.252
114401.000			-52.523			-5.252
114500.000			-52.521			-5.252
114601.000			-52.519			-5.252
114700.000			-52.518			-5.252
114800.000			-52.516			-5.252
114901.000			-52.515			-5.251
115000.000			-52.514			-5.251
115102.000			-52.513			-5.251
115201.000			-52.513			-5.251
115300.000			-52.512			-5.251
115401.000			-52.508			-5.251
115500.000			-52.506			-5.251
115600.000			-52.506			-5.251
115701.000			-52.504			-5.250
115800.000			-52.503			-5.250
115901.000			-52.502			-5.250
116002.000			-52.502			-5.250
116101.000			-52.501			-5.250
116200.000			-52.498			-5.250
116301.000			-52.497			-5.250
116400.000			-52.496			-5.250
116500.000			-52.496			-5.250
116601.000			-52.493			-5.249
116700.000			-52.492			-5.249
116801.000			-52.491			-5.249
116902.000			-52.490			-5.249
117000.000			-52.488			-5.249
117100.000			-52.486			-5.249
117201.000			-52.485			-5.248
117300.000			-52.484			-5.248
117400.000			-52.482			-5.248
117501.000			-52.481			-5.248
117601.000			-52.479			-5.248
117701.000			-52.478			-5.248
117802.000			-52.477			-5.248
117900.000			-52.476			-5.248
118000.000			-52.474			-5.247
118101.000			-52.474			-5.247
118200.000			-52.474			-5.247
118300.000			-52.471			-5.247
118400.000			-52.469			-5.247
118501.000			-52.467			-5.247
118602.000			-52.467			-5.247
118700.000			-52.465			-5.247
118800.000			-52.465			-5.246
118901.000			-52.463			-5.246
119000.000			-52.462			-5.246
119100.000			-52.459			-5.246
119201.000			-52.459			-5.246
119300.000			-52.458			-5.246
119401.000			-52.457			-5.246
119502.000			-52.455			-5.245
119600.000			-52.454			-5.245
119700.000			-52.454			-5.245
119801.000			-52.452			-5.245
119900.000			-52.450			-5.245
120000.000			-52.448			-5.245
120101.000			-52.448			-5.245
120201.000			-52.447			-5.245
120301.000			-52.446			-5.245
120401.000			-52.445			-5.245
120500.000			-52.443			-5.244
120600.000			-52.441			-5.244
120701.000			-52.440			-5.244
120800.000			-52.440			-5.244
120900.000			-52.438			-5.244
121002.000			-52.437			-5.244
121101.000			-52.436			-5.244
121200.000			-52.434			-5.243
121301.000			-52.432			-5.243
121400.000			-52.432			-5.243
121500.000			-52.431			-5.243
121600.000			-52.430			-5.243
121700.000			-52.428			-5.243
121801.000			-52.427			-5.243
121901.000			-52.425			-5.243
122001.000			-52.424			-5.242
122101.000			-52.423			-5.242
122200.000			-52.422			-5.242
122300.000			-52.421			-5.242
122401.000			-52.420			-5.242
122500.000			-52.419			-5.242
122600.000			-52.419			-5.242
122702.000			-52.415			-5.241
122801.000			-52.413			-5.241
122900.000			-52.414			-5.241
123001.000			-52.412			-5.241
123100.000			-52.410			-5.241
123200.000			-52.409			-5.241
123301.000			-52.409			-5.241
123400.000			-52.406			-5.241
123501.000			-52.405			-5.240
123602.000			-52.405			-5.240
123701.000			-52.404			-5.240
123800.000			-52.403			-5.240
123901.000			-52.401			-5.240
124000.000			-52.400			-5.240
124100.000			-52.398			-5.240
124201.000			-52.398			-5.240
124300.000			-52.396			-5.240
124401.000			-52.396			-5.240
124502.000			-52.395			-5.239
124600.000			-52.393			-5.239
124700.000			-52.392			-5.239
124800.000			-52.389			-5.239
124900.000			-52.388			-5.239
125001.000			-52.387			-5.239
125100.000			-52.386			-5.239
125201.000			-52.384			-5.238
125302.000			-52.384			-5.238
125401.000			-52.383			-5.238
125500.000			-52.383			-5.238
125601.000			-52.380			-5.238
125700.000			-52.379			-5.238
125800.000			-52.379			-5.238
125901.000			-52.377			-5.238
126000.000			-52.376			-5.238
126101.000			-52.375			-5.238
126202.000			-52.373			-5.237
126300.000			-52.372			-5.237
126400.000			-52.372			-5.237
126501.000			-52.370			-5.237
126600.000			-52.370			-5.237
126700.000			-52.370			-5.237
126801.000			-52.367			-5.237
126901.000			-52.365			-5.237
127001.000			-52.363			-5.236
127102.000			-52.363			-5.236
127200.000			-52.361			-5.236
127300.000			-52.361			-5.236
127401.000			-52.360			-5.236
127500.000			-52.359			-5.236
127600.000			-52.357			-5.236
127701.000			-52.355			-5.236
127801.000			-52.354			-5.235
127902.000			-52.354			-5.235
128001.000			-52.353			-5.235
128100.000			-52.352			-5.235
128201.000			-52.351			-5.235
128300.000			-52.350			-5.235
128400.000			-52.348			-5.235
128501.000			-52.346			-5.235
128600.000			-52.345			-5.235
128701.000			-52.344			-5.234
128802.000			-52.343			-5.234
128900.000			-52.342			-5.234
129000.000			-52.340			-5.234
129101.000			-52.340			-5.234
129200.000			-52.338			-5.234
129300.000			-52.338			-5.234
129401.000			-52.336			-5.234
129501.000			-52.334			-5.233
129601.000			-52.333			-5.233
129702.000			-52.332			-5.233
129800.000			-52.331			-5.233
129900.000			-52.330			-5.233
130001.000			-52.329			-5.233
130100.000			-52.328			-5.233
130200.000			-52.327			-5.233
130301.000			-52.326			-5.233
130401.000			-52.325			-5.232
130501.000			-52.323			-5.232
130601.000			-52.322			-5.232
130700.000			-52.321			-5.232
130800.000			-52.319			-5.232
130901.000			-52.318			-5.232
131000.000			-52.316			-5.232
131100.000			-52.315			-5.232
131202.000			-52.313			-5.231
131301.000			-52.315			-5.231
131402.000			-52.313			-5.231
131500.000			-52.310			-5.231
131600.000			-52.309			-5.231
131701.000			-52.308			-5.231
131800.000			-52.307			-5.231
131900.000			-52.306			-5.231
132001.000			-52.305			-5.231
132101.000			-52.303			-5.230
132201.000			-52.303			-5.230
132301.000			-52.302			-5.230
132400.000			-52.301			-5.230
132500.000			-52.300			-5.230
132601.000			-52.298			-5.230
132700.000			-52.297			-5.230
132800.000			-52.297			-5.230
132901.000			-52.296			-5.230
133001.000			-52.294			-5.229
133101.000			-52.292			-5.229
133201.000			-52.291			-5.229
133300.000			-52.291			-5.229
133400.000			-52.290			-5.229
133501.000			-52.289			-5.229
133600.000			-52.288			-5.229
133700.000			-52.287			-5.229
133801.000			-52.284			-5.228
133901.000			-52.283			-5.228
134001.000			-52.282			-5.228
134101.000			-52.282			-5.228
134200.000			-52.280			-5.228
134300.000			-52.278			-5.228
134400.000			-52.277			-5.228
134500.000			-52.278			-5.228
134601.000			-52.276			-5.228
134700.000			-52.275			-5.227
134801.000			-52.273			-5.227
134902.000			-52.271			-5.227
135001.000			-52.271			-5.227
135100.000			-52.269			-5.227
135201.000			-52.269			-5.227
135300.000			-52.268			-5.227
135400.000			-52.267			-5.227
135501.000			-52.266			-5.227
135600.000			-52.266			-5.227
135700.000			-52.263			-5.226
135802.000			-52.262			-5.226
135901.000			-52.261			-5.226
136000.000			-52.261			-5.226
136101.000			-52.261			-5.226
136200.000			-52.259			-5.226
136300.000			-52.257			-5.226
136401.000			-52.256			-5.226
136500.000			-52.255			-5.225
136600.000			-52.254			-5.225
136702.000			-52.253			-5.225
136801.000			-52.252			-5.225
136900.000			-52.250			-5.225
137001.000			-52.249			-5.225
137100.000			-52.249			-5.225
137200.000			-52.247			-5.225
137301.000			-52.245			-5.225
137400.000			-52.244			-5.224
137500.000			-52.244			-5.224
137602.000			-52.243			-5.224
137701.000			-52.242			-5.224
137801.000			-52.240			-5.224
137900.000			-52.238			-5.224
138000.000			-52.237			-5.224
138101.000			-52.236			-5.224
138200.000			-52.236			-5.224
138300.000			-52.235			-5.224
138401.000			-52.233			-5.223
138501.000			-52.233			-5.223
138601.000			-52.232			-5.223
138702.000			-52.230			-5.223
138800.000			-52.229			-5.223
138900.000			-52.228			-5.223
139001.000			-52.228			-5.223
139100.000			-52.227			-5.223
139200.000			-52.225			-5.222
139301.000			-52.225			-5.222
139400.000			-52.223			-5.222
139501.000			-52.223			-5.222
139602.000			-52.222			-5.222
139700.000			-52.220			-5.222
139800.000			-52.219			-5.222
139901.000			-52.219			-5.222
140000.000			-52.217			-5.222
140100.000			-52.214			-5.221
140201.000			-52.214			-5.221
140301.000			-52.213			-5.221
140401.000			-52.213			-5.221
140502.000			-52.212			-5.221
140600.000			-52.210			-5.221
140700.000			-52.209			-5.221
140800.000			-52.209			-5.221
140900.000			-52.207			-5.221
141001.000			-52.206			-5.221
141100.000			-52.205			-5.221
141201.000			-52.204			-5.220
141302.000			-52.203			-5.220
141400.000			-52.202			-5.220
141500.000			-52.199			-5.220
141601.000			-52.198			-5.220
141700.000			-52.198			-5.220
141800.000			-52.197			-5.220
141901.000			-52.197			-5.220
142000.000			-52.196			-5.220
142101.000			-52.195			-5.220
142202.000			-52.193			-5.219
142301.000			-52.192			-5.219
142400.000			-52.190			-5.219
142501.000			-52.189			-5.219
142600.000			-52.189			-5.219
142700.000			-52.188			-5.219
142801.000			-52.187			-5.219
142900.000			-52.186			-5.219
143001.000			-52.185			-5.218
143102.000			-52.184			-5.218
143201.000			-52.183			-5.218
143300.000			-52.182			-5.218
143401.000			-52.181			-5.218
143500.000			-52.180			-5.218
143600.000			-52.179			-5.218
143701.000			-52.177			-5.218
143800.000			-52.176			-5.218
143900.000			-52.175			-5.218
144002.000			-52.174			-5.217
144101.000			-52.174			-5.217
144201.000			-52.173			-5.217
144300.000			-52.171			-5.217
144400.000			-52.170			-5.217
144501.000			-52.168			-5.217
144600.000			-52.167			-5.217
144700.000			-52.166			-5.217
144801.000			-52.166			-5.217
144901.000			-52.164			-5.216
145001.000			-52.164			-5.216
145101.000			-52.162			-5.216
145200.000			-52.161			-5.216
145300.000			-52.161			-5.216
145401.000			-52.159			-5.216
145500.000			-52.158			-5.216
145600.000			-52.157			-5.216
145701.000			-52.157			-5.216
145801.000			-52.156			-5.216
145901.000			-52.154			-5.215
146002.000			-52.154			-5.215
146100.000			-52.152			-5.215
146200.000			-52.151			-5.215
146301.000			-52.150			-5.215
146400.000			-52.149			-5.215
146500.000			-52.147			-5.215
146601.000			-52.146			-5.215
146701.000			-52.145			-5.215
146801.000			-52.145			-5.214
146902.000			-52.145			-5.214
147000.000			-52.143			-5.214
147100.000			-52.142			-5.214
147200.000			-52.141			-5.214
147300.000			-52.139			-5.214
147401.000			-52.138			-5.214
147500.000			-52.137			-5.214
147600.000			-52.135			-5.214
147702.000			-52.135			-5.213
147801.000			-52.135			-5.213
147900.000			-52.133			-5.213
148001.000			-52.132			-5.213
148100.000			-52.131			-5.213
148200.000			-52.129			-5.213
148301.000			-52.128			-5.213
148400.000			-52.129			-5.213
148500.000			-52.128			-5.213
148602.000			-52.125			-5.213
148701.000			-52.125			-5.212
148801.000			-52.124			-5.212
148901.000			-52.122			-5.212
149000.000			-52.122			-5.212
149100.000			-52.121			-5.212
149201.000			-52.120			-5.212
149300.000			-52.120			-5.212
149400.000			-52.119			-5.212
149502.000			-52.117			-5.212
149601.000			-52.116			-5.212
149701.000			-52.115			-5.211
149801.000			-52.114			-5.211
149900.000			-52.113			-5.211
150000.000			-52.113			-5.211
150101.000			-52.112			-5.211
150200.000			-52.111			-5.211
150300.000			-52.108			-5.211
150400.000			-52.106			-5.211
150501.000			-52.106			-5.211
150602.000			-52.105			-5.211
150700.000			-52.105			-5.210
150800.000			-52.105			-5.210
150901.000			-52.102			-5.210
151000.000			-52.101			-5.210
151100.000			-52.101			-5.210
151201.000			-52.101			-5.210
151301.000			-52.099			-5.210
151401.000			-52.098			-5.210
151502.000			-52.097			-5.210
151600.000			-52.095			-5.209
151700.000			-52.095			-5.209
151801.000			-52.094			-5.209
151900.000			-52.093			-5.209
152000.000			-52.092			-5.209
152101.000			-52.091			-5.209
152201.000			-52.090			-5.209
152301.000			-52.089			-5.209
152402.000			-52.089			-5.209
152500.000			-52.088			-5.209
152600.000			-52.086			-5.209
152701.000			-52.086			-5.209
152800.000			-52.084			-5.208
152900.000			-52.082			-5.208
153001.000			-52.082			-5.208
153100.000			-52.081			-5.208
153201.000			-52.080			-5.208
153302.000			-52.079			-5.208
153400.000			-52.079			-5.208
153500.000			-52.077			-5.208
153600.000			-52.076			-5.208
153700.000			-52.076			-5.208
153801.000			-52.073			-5.207
153900.000			-52.072			-5.207
154000.000			-52.071			-5.207
154102.000			-52.070			-5.207
154201.000			-52.070			-5.207
154301.000			-52.070			-5.207
154401.000			-52.069			-5.207
154500.000			-52.068			-5.207
154600.000			-52.067			-5.207
154701.000			-52.065			-5.206
154800.000			-52.065			-5.206
154900.000			-52.063			-5.206
155002.000			-52.062			-5.206
155101.000			-52.061			-5.206
155201.000			-52.060			-5.206
155301.000			-52.060			-5.206
155400.000			-52.058			-5.206
155500.000			-52.058			-5.206
155601.000			-52.057			-5.206
155700.000			-52.056			-5.206
155800.000			-52.054			-5.205
155902.000			-52.053			-5.205
156001.000			-52.052			-5.205
156101.000			-52.051			-5.205
156201.000			-52.050			-5.205
156300.000			-52.049			-5.205
156400.000			-52.048			-5.205
156501.000			-52.048			-5.205
156600.000			-52.047			-5.205
156700.000			-52.045			-5.205
156800.000			-52.044			-5.204
156901.000			-52.043			-5.204
157002.000			-52.043			-5.204
157100.000			-52.042			-5.204
157200.000			-52.041			-5.204
157301.000			-52.040			-5.204
157400.000			-52.039			-5.204
157500.000			-52.038			-5.204
157601.000			-52.037			-5.204
157700.000			-52.036			-5.204
157801.000			-52.035			-5.204
157902.000			-52.035			-5.203
158001.000			-52.034			-5.203
158100.000			-52.032			-5.203
158201.000			-52.031			-5.203
158300.000			-52.030			-5.203
158400.000			-52.030			-5.203
158501.000			-52.028			-5.203
158600.000			-52.027			-5.203
158701.000			-52.026			-5.203
158802.000			-52.026			-5.203
158901.000			-52.024			-5.202
159000.000			-52.023			-5.202
159101.000			-52.022			-5.202
159200.000			-52.020			-5.202
159300.000			-52.020			-5.202
159401.000			-52.020			-5.202
159500.000			-52.019			-5.202
159600.000			-52.018			-5.202
159702.000			-52.017			-5.202
159801.000			-52.015			-5.201
159900.000			-52.015			-5.202
160000.000			-52.015			-5.201
160100.000			-52.013			-5.201
160201.000			-52.012			-5.201
160300.000			-52.009			-5.201
160400.000			-52.009			-5.201
160501.000			-52.009			-5.201
160601.000			-52.008			-5.201
160701.000			-52.006			-5.201
160801.000			-52.006			-5.201
160900.000			-52.005			-5.201
161000.000			-52.003			-5.200
161101.000			-52.002			-5.200
161200.000			-52.001			-5.200
161300.000			-52.000			-5.200
161402.000			-51.999			-5.200
161501.000			-51.999			-5.200
161601.000			-51.998			-5.200
161701.000			-51.997			-5.200
161800.000			-51.996			-5.200
161900.000			-51.995			-5.200
162001.000			-51.995			-5.199
162100.000			-51.993			-5.199
162200.000			-51.992			-5.199
162301.000			-51.992			-5.199
162401.000			-51.991			-5.199
162501.000			-51.989			-5.199
162602.000			-51.989			-5.199
162700.000			-51.988			-5.199
162800.000			-51.987			-5.199
162901.000			-51.987			-5.199
163000.000			-51.986			-5.199
163100.000			-51.984			-5.198
163200.000			-51.983			-5.198
163300.000			-51.983			-5.198
163402.000			-51.982			-5.198
163501.000			-51.981			-5.198
163600.000			-51.979			-5.198
163701.000			-51.979			-5.198
163800.000			-51.978			-5.198
163900.000			-51.976			-5.198
164001.000			-51.976			-5.198
164100.000			-51.976			-5.198
164200.000			-51.974			-5.197
164301.000			-51.974			-5.197
164401.000			-51.973			-5.197
164501.000			-51.973			-5.197
164601.000			-51.970			-5.197
164700.000			-51.969			-5.197
164800.000			-51.969			-5.197
164901.000			-51.967			-5.197
165000.000			-51.966			-5.197
165100.000			-51.966			-5.197
165201.000			-51.966			-5.197
165301.000			-51.965			-5.196
165401.000			-51.963			-5.196
165502.000			-51.963			-5.196
165600.000			-51.963			-5.196
165700.000			-51.961			-5.196
165801.000			-51.960			-5.196
165900.000			-51.959			-5.196
166000.000			-51.958			-5.196
166101.000			-51.956			-5.196
166200.000			-51.956			-5.196
166302.000			-51.955			-5.196
166401.000			-51.954			-5.195
166500.000			-51.954			-5.195
166601.000			-51.953			-5.195
166700.000			-51.953			-5.195
166800.000			-51.950			-5.195
166901.000			-51.950			-5.195
167000.000			-51.950			-5.195
167100.000			-51.949			-5.195
167202.000			-51.947			-5.195
167301.000			-51.946			-5.195
167401.000			-51.945			-5.195
167501.000			-51.944			-5.194
167600.000			-51.944			-5.194
167700.000			-51.942			-5.194
167801.000			-51.941			-5.194
167900.000			-51.941			-5.194
168000.000			-51.940			-5.194
168101.000			-51.940			-5.194
168201.000			-51.939			-5.194
168301.000			-51.936			-5.194
168401.000			-51.936			-5.194
168500.000			-51.935			-5.194
168600.000			-51.935			-5.193
168701.000			-51.934			-5.193
168800.000			-51.934			-5.193
168900.000			-51.932			-5.193
169001.000			-51.930			-5.193
169101.000			-51.931			-5.193
169201.000			-51.930			-5.193
169302.000			-51.928			-5.193
169400.000			-51.927			-5.193
169500.000			-51.926			-5.193
169600.000			-51.926			-5.193
169700.000			-51.925			-5.192
169801.000			-51.923			-5.192
169900.000			-51.923			-5.192
170000.000			-51.923			-5.192
170102.000			-51.920			-5.192
170201.000			-51.920			-5.192
170301.000			-51.920			-5.192
170401.000			-51.918			-5.192
170500.000			-51.917			-5.192
170600.000			-51.916			-5.192
170701.000			-51.917			-5.192
170800.000			-51.916			-5.192
170900.000			-51.915			-5.192
171001.000			-51.915			-5.191
171101.000			-51.912			-5.191
171201.000			-51.910			-5.191
171301.000			-51.909			-5.191
171400.000			-51.908			-5.191
171500.000			-51.908			-5.191
171601.000			-51.907			-5.191
171700.000			-51.906			-5.191
171800.000			-51.906			-5.191
171901.000			-51.904			-5.190
172001.000			-51.904			-5.190
172101.000			-51.903			-5.190
172201.000			-51.903			-5.190
172300.000			-51.903			-5.190
172400.000			-51.901			-5.190
172501.000			-51.900			-5.190
172600.000			-51.899			-5.190
172700.000			-51.898			-5.190
172800.000			-51.897			-5.190
172900.000			-51.897			-5.190
173002.000			-51.896			-5.190
173101.000			-51.895			-5.189
173200.000			-51.894			-5.189
173301.000			-51.892			-5.189
173400.000			-51.892			-5.189
173500.000			-51.891			-5.189
173601.000			-51.891			-5.189
173700.000			-51.889			-5.189
173800.000			-51.888			-5.189
173902.000			-51.889			-5.189
174001.000			-51.888			-5.189
174101.000			-51.885			-5.189
174201.000			-51.885			-5.188
174300.000			-51.884			-5.188
174400.000			-51.884			-5.188
174501.000			-51.883			-5.188
174600.000			-51.882			-5.188
174700.000			-51.881			-5.188
174801.000			-51.880			-5.188
174901.000			-51.880			-5.188
175001.000			-51.878			-5.188
175102.000			-51.877			-5.188
175200.000			-51.878			-5.188
175300.000			-51.877			-5.188
175401.000			-51.876			-5.188
175500.000			-51.874			-5.187
175600.000			-51.873			-5.187
175701.000			-51.872			-5.187
175800.000			-51.871			-5.187
175902.000			-51.870			-5.187
176001.000			-51.871			-5.187
176101.000			-51.871			-5.187
176201.000			-51.868			-5.187
176300.000			-51.867			-5.187
176400.000			-51.866			-5.187
176501.000			-51.866			-5.187
176600.000			-51.866			-5.187
176700.000			-51.865			-5.187
176801.000			-51.865			-5.186
176901.000			-51.864			-5.186
177001.000			-51.862			-5.186
177101.000			-51.861			-5.186
177200.000			-51.859			-5.186
177300.000			-51.858			-5.186
177401.000			-51.859			-5.186
177500.000			-51.859			-5.186
177600.000			-51.858			-5.186
177701.000			-51.856			-5.186
177800.000			-51.855			-5.186
177901.000			-51.855			-5.186
178002.000			-51.854			-5.185
178100.000			-51.852			-5.185
178200.000			-51.852			-5.185
178301.000			-51.851			-5.185
178400.000			-51.850			-5.185
178500.000			-51.849			-5.185
178601.000			-51.848			-5.185
178700.000			-51.848			-5.185
178800.000			-51.846			-5.185
178902.000			-51.846			-5.185
179001.000			-51.846			-5.185
179100.000			-51.844			-5.184
179200.000			-51.843			-5.184
179300.000			-51.842			-5.184
179401.000			-51.841			-5.184
179500.000			-51.840			-5.184
179600.000			-51.840			-5.184
179701.000			-51.839			-5.184
179801.000			-51.839			-5.184
179901.000			-51.838			-5.184
180002.000			-51.836			-5.184
180100.000			-51.836			-5.184
180200.000			-51.835			-5.184
180301.000			-51.833			-5.183
180400.000			-51.833			-5.183
180500.000			-51.833			-5.183
180601.000			-51.830			-5.183
180700.000			-51.830			-5.183
180801.000			-51.830			-5.183
180902.000			-51.829			-5.183
181000.000			-51.829			-5.183
181100.000			-51.828			-5.183
181201.000			-51.827			-5.183
181300.000			-51.826			-5.183
181400.000			-51.826			-5.183
181501.000			-51.825			-5.182
181600.000			-51.823			-5.182
181701.000			-51.823			-5.182
181802.000			-51.823			-5.182
181901.000			-51.821			-5.182
182000.000			-51.820			-5.182
182101.000			-51.819			-5.182
182200.000			-51.819			-5.182
182300.000			-51.818			-5.182
182400.000			-51.817			-5.182
182500.000			-51.816			-5.182
182601.000			-51.815			-5.182
182701.000			-51.815			-5.181
182801.000			-51.814			-5.181
182901.000			-51.813			-5.181
183000.000			-51.812			-5.181
183100.000			-51.812			-5.181
183201.000			-51.810			-5.181
183300.000			-51.809			-5.181
183400.000			-51.808			-5.181
183501.000			-51.807			-5.181
183601.000			-51.807			-5.181
183701.000			-51.807			-5.181
183802.000			-51.806			-5.181
183900.000			-51.804			-5.180
184000.000			-51.803			-5.180
184101.000			-51.803			-5.180
184200.000			-51.802			-5.180
184300.000			-51.801			-5.180
184401.000			-51.800			-5.180
184501.000			-51.800			-5.180
184601.000			-51.799			-5.180
184702.000			-51.799			-5.180
184800.000			-51.798			-5.180
184900.000			-51.797			-5.180
185001.000			-51.795			-5.179
185100.000			-51.793			-5.179
185200.000			-51.793			-5.179
185301.000			-51.794			-5.179
185400.000			-51.793			-5.179
185500.000			-51.792			-5.179
185602.000			-51.791			-5.179
185701.000			-51.790			-5.179
185801.000			-51.789			-5.179
185900.000			-51.789			-5.179
186000.000			-51.788			-5.179
186101.000			-51.787			-5.179
186200.000			-51.785			-5.179
186300.000			-51.785			-5.178
186401.000			-51.784			-5.178
186501.000			-51.784			-5.178
186601.000			-51.783			-5.178
186702.000			-51.782			-5.178
186800.000			-51.781			-5.178
186900.000			-51.780			-5.178
187001.000			-51.779			-5.178
187100.000			-51.778			-5.178
187200.000			-51.777			-5.178
187301.000			-51.777			-5.178
187400.000			-51.776			-5.178
187501.000			-51.775			-5.178
187602.000			-51.775			-5.177
187701.000			-51.773			-5.177
187800.000			-51.772			-5.177
187901.000			-51.772			-5.177
188000.000			-51.771			-5.177
188100.000			-51.770			-5.177
188201.000			-51.770			-5.177
188300.000			-51.769			-5.177
188400.000			-51.769			-5.177
188502.000			-51.768			-5.177
188601.000			-51.767			-5.177
188702.000			-51.767			-5.177
188800.000			-51.765			-5.177
188900.000			-51.763			-5.176
189001.000			-51.762			-5.176
189100.000			-51.763			-5.176
189200.000			-51.762			-5.176
189301.000			-51.760			-5.176
189400.000			-51.759			-5.176
189501.000			-51.758			-5.176
189602.000			-51.758			-5.176
189701.000			-51.758			-5.176
189800.000			-51.757			-5.176
189901.000			-51.756			-5.176
190000.000			-51.754			-5.175
190100.000			-51.754			-5.175
190201.000			-51.753			-5.175
190300.000			-51.752			-5.175
190400.000			-51.752			-5.175
190502.000			-51.751			-5.175
190601.000			-51.750			-5.175
190700.000			-51.749			-5.175
190801.000			-51.749			-5.175
190900.000			-51.748			-5.175
191000.000			-51.746			-5.175
191101.000			-51.745			-5.175
191200.000			-51.745			-5.175
191300.000			-51.745			-5.174
191401.000			-51.743			-5.174
191501.000			-51.741			-5.174
191601.000			-51.741			-5.174
191701.000			-51.741			-5.174
191800.000			-51.740			-5.174
191900.000			-51.739			-5.174
192000.000			-51.739			-5.174
192100.000			-51.739			-5.174
192201.000			-51.737			-5.174
192300.000			-51.736			-5.174
192401.000			-51.735			-5.174
192502.000			-51.734			-5.173
192601.000			-51.735			-5.173
192700.000			-51.734			-5.173
192801.000			-51.733			-5.173
192900.000			-51.731			-5.173
193000.000			-51.731			-5.173
193101.000			-51.730			-5.173
193200.000			-51.730			-5.173
193300.000			-51.729			-5.173
193402.000			-51.727			-5.173
193501.000			-51.727			-5.173
193600.000			-51.727			-5.173
193701.000			-51.725			-5.173
193800.000			-51.724			-5.172
193900.000			-51.724			-5.172
194001.000			-51.723			-5.172
194100.000			-51.723			-5.172
194200.000			-51.722			-5.172
194302.000			-51.721			-5.172
194401.000			-51.720			-5.172
194501.000			-51.719			-5.172
194601.000			-51.718			-5.172
194700.000			-51.717			-5.172
194800.000			-51.716			-5.172
194901.000			-51.716			-5.172
195000.000			-51.715			-5.172
195100.000			-51.714			-5.171
195200.000			-51.715			-5.171
195301.000			-51.714			-5.171
195402.000			-51.713			-5.171
195500.000			-51.711			-5.171
195600.000			-51.710			-5.171
195701.000			-51.709			-5.171
195800.000			-51.708			-5.171
195900.000			-51.708			-5.171
196001.000			-51.707			-5.171
196100.000			-51.707			-5.171
196200.000			-51.707			-5.171
196302.000			-51.705			-5.171
196401.000			-51.705			-5.171
196500.000			-51.703			-5.170
196601.000			-51.703			-5.170
196700.000			-51.702			-5.170
196800.000			-51.702			-5.170
196901.000			-51.702			-5.170
197000.000			-51.701			-5.170
197100.000			-51.700			-5.170
197202.000			-51.697			-5.170
197301.000			-51.696			-5.170
197400.000			-51.696			-5.170
197501.000			-51.696			-5.170
197600.000			-51.695			-5.170
197700.000			-51.695			-5.170
197801.000			-51.695			-5.169
197900.000			-51.694			-5.169
198000.000			-51.692			-5.169
198101.000			-51.690			-5.169
198201.000			-51.689			-5.169
198302.000			-51.689			-5.169
198401.000			-51.689			-5.169
198500.000			-51.689			-5.169
198601.000			-51.688			-5.169
198700.000			-51.685			-5.169
198800.000			-51.684			-5.168
198901.000			-51.684			-5.168
199000.000			-51.684			-5.168
199100.000			-51.683			-5.168
199202.000			-51.682			-5.168
199301.000			-51.681			-5.168
199401.000			-51.680			-5.168
199501.000			-51.678			-5.168
199600.000			-51.678			-5.168
199700.000			-51.678			-5.168
199801.000			-51.677			-5.168
199900.000			-51.677			-5.168
200000.000			-51.677			-5.168
200101.000			-51.674			-5.167
200201.000			-51.675			-5.167
200301.000			-51.674			-5.167
200401.000			-51.674			-5.167
200500.000			-51.673			-5.167
200600.000			-51.672			-5.167
200701.000			-51.672			-5.167
200800.000			-51.671			-5.167
200900.000			-51.669			-5.167
201001.000			-51.668			-5.167
201101.000			-51.668			-5.167
201201.000			-51.668			-5.167
201301.000			-51.666			-5.167
201400.000			-51.666			-5.167
201500.000			-51.666			-5.167
201600.000			-51.664			-5.166
201700.000			-51.663			-5.166
201801.000			-51.663			-5.166
201900.000			-51.663			-5.166
202001.000			-51.661			-5.166
202102.000			-51.661			-5.166
202201.000			-51.660			-5.166
202300.000			-51.659			-5.166
202401.000			-51.658			-5.166
202500.000			-51.657			-5.166
202600.000			-51.656			-5.166
202701.000			-51.656			-5.166
202800.000			-51.656			-5.166
202901.000			-51.655			-5.165
203002.000			-51.654			-5.165
203101.000			-51.654			-5.165
203200.000			-51.653			-5.165
203301.000			-51.653			-5.165
203400.000			-51.651			-5.165
203500.000			-51.650			-5.165
203601.000			-51.650			-5.165
203700.000			-51.650			-5.165
203801.000			-51.648			-5.165
203902.000			-51.648			-5.165
204001.000			-51.647			-5.165
204100.000			-51.647			-5.165
204201.000			-51.645			-5.165
204300.000			-51.645			-5.164
204400.000			-51.645			-5.164
204501.000			-51.642			-5.164
204600.000			-51.641			-5.164
204700.000			-51.641			-5.164
204802.000			-51.640			-5.164
204901.000			-51.641			-5.164
205001.000			-51.641			-5.164
205100.000			-51.639			-5.164
205200.000			-51.637			-5.164
205301.000			-51.637			-5.164
205400.000			-51.636			-5.164
205500.000			-51.636			-5.164
205601.000			-51.635			-5.163
205701.000			-51.633			-5.163
205801.000			-51.633			-5.163
205901.000			-51.632			-5.163
206000.000			-51.631			-5.163
206100.000			-51.632			-5.163
206201.000			-51.631			-5.163
206300.000			-51.630			-5.163
206400.000			-51.629			-5.163
206501.000			-51.628			-5.163
206601.000			-51.627			-5.163
206701.000			-51.626			-5.163
206801.000			-51.626			-5.163
206900.000			-51.626			-5.163
207000.000			-51.625			-5.162
207101.000			-51.624			-5.162
207200.000			-51.623			-5.162
207300.000			-51.623			-5.162
207401.000			-51.621			-5.162
207501.000			-51.621			-5.162
207601.000			-51.619			-5.162
207701.000			-51.619			-5.162
207800.000			-51.619			-5.162
207900.000			-51.618			-5.162
208000.000			-51.617			-5.162
208100.000			-51.616			-5.162
208201.000			-51.615			-5.161
208300.000			-51.615			-5.161
208401.000			-51.614			-5.161
208502.000			-51.613			-5.161
208601.000			-51.613			-5.161
208700.000			-51.612			-5.161
208801.000			-51.611			-5.161
208900.000			-51.610			-5.161
209000.000			-51.609			-5.161
209101.000			-51.609			-5.161
209200.000			-51.609			-5.161
209300.000			-51.609			-5.161
209402.000			-51.608			-5.161
209501.000			-51.606			-5.161
209600.000			-51.604			-5.160
209701.000			-51.605			-5.160
209800.000			-51.605			-5.160
209900.000			-51.604			-5.160
210001.000			-51.604			-5.160
210100.000			-51.602			-5.160
210200.000			-51.601			-5.160
210302.000			-51.600			-5.160
210401.000			-51.599			-5.160
210500.000			-51.598			-5.160
210601.000			-51.598			-5.160
210700.000			-51.598			-5.160
210800.000			-51.597			-5.160
210901.000			-51.596			-5.160
211000.000			-51.594			-5.159
211100.000			-51.594			-5.159
211202.000			-51.593			-5.159
211301.000			-51.592			-5.159
211401.000			-51.592			-5.159
211500.000			-51.591			-5.159
211600.000			-51.591			-5.159
211701.000			-51.590			-5.159
211800.000			-51.590			-5.159
211900.000			-51.588			-5.159
212001.000			-51.588			-5.159
212101.000			-51.588			-5.159
212201.000			-51.587			-5.159
212302.000			-51.587			-5.159
212400.000			-51.586			-5.159
212500.000			-51.585			-5.159
212601.000			-51.584			-5.158
212700.000			-51.583			-5.158
212800.000			-51.582			-5.158
212901.000			-51.581			-5.158
213001.000			-51.580			-5.158
213101.000			-51.580			-5.158
213202.000			-51.580			-5.158
213300.000			-51.578			-5.158
213400.000			-51.578			-5.158
213501.000			-51.577			-5.158
213600.000			-51.576			-5.158
213700.000			-51.576			-5.158
213801.000			-51.575			-5.158
213900.000			-51.575			-5.157
214001.000			-51.574			-5.157
214102.000			-51.573			-5.157
214200.000			-51.573			-5.157
214300.000			-51.571			-5.157
214400.000			-51.570			-5.157
214500.000			-51.570			-5.157
214601.000			-51.570			-5.157
214700.000			-51.569			-5.157
214800.000			-51.567			-5.157
214902.000			-51.567			-5.157
215001.000			-51.567			-5.157
215101.000			-51.566			-5.157
215201.000			-51.566			-5.157
215300.000			-51.565			-5.156
215400.000			-51.564			-5.156
215501.000			-51.563			-5.156
215600.000			-51.562			-5.156
215700.000			-51.562			-5.156
215802.000			-51.561			-5.156
215901.000			-51.560			-5.156
216001.000			-51.560			-5.156
216101.000			-51.559			-5.156
216200.000			-51.559			-5.156
216300.000			-51.557			-5.156
216401.000			-51.556			-5.156
216500.000			-51.555			-5.156
216600.000			-51.556			-5.156
216701.000			-51.556			-5.156
216801.000			-51.555			-5.155
216901.000			-51.553			-5.155
217001.000			-51.552			-5.155
217100.000			-51.551			-5.155
217200.000			-51.551			-5.155
217301.000			-51.551			-5.155
217400.000			-51.549			-5.155
217500.000			-51.548			-5.155
217600.000			-51.547			-5.155
217701.000			-51.546			-5.155
217802.000			-51.547			-5.155
217901.000			-51.546			-5.155
218000.000			-51.546			-5.155
218101.000			-51.545			-5.155
218200.000			-51.543			-5.154
218300.000			-51.543			-5.154
218401.000			-51.543			-5.154
218500.000			-51.542			-5.154
218601.000			-51.541			-5.154
218702.000			-51.541			-5.154
218801.000			-51.540			-5.154
218900.000			-51.539			-5.154
219001.000			-51.538			-5.154
219100.000			-51.537			-5.154
219200.000			-51.537			-5.154
219301.000			-51.536			-5.154
219400.000			-51.535			-5.154
219500.000			-51.535			-5.153
219602.000			-51.534			-5.153
219701.000			-51.534			-5.153
219800.000			-51.533			-5.153
219901.000			-51.532			-5.153
220000.000			-51.532			-5.153
220100.000			-51.531			-5.153
220201.000			-51.531			-5.153
220300.000			-51.530			-5.153
220400.000			-51.528			-5.153
220502.000			-51.527			-5.153
220601.000			-51.528			-5.153
220700.000			-51.527			-5.153
220800.000			-51.526			-5.153
220900.000			-51.526			-5.153
221001.000			-51.526			-5.153
221100.000			-51.524			-5.152
221200.000			-51.524			-5.152
221301.000			-51.523			-5.152
221401.000			-51.522			-5.152
221501.000			-51.521			-5.152
221601.000			-51.521			-5.152
221700.000			-51.519			-5.152
221800.000			-51.519			-5.152
221901.000			-51.518			-5.152
222000.000			-51.518			-5.152
222100.000			-51.517			-5.152
222201.000			-51.517			-5.152
222301.000			-51.515			-5.152
222401.000			-51.515			-5.151
222501.000			-51.514			-5.151
222600.000			-51.513			-5.151
222700.000			-51.513			-5.151
222801.000			-51.512			-5.151
222900.000			-51.511			-5.151
223000.000			-51.512			-5.151
223101.000			-51.511			-5.151
223201.000			-51.510			-5.151
223301.000			-51.508			-5.151
223401.000			-51.508			-5.151
223500.000			-51.507			-5.151
223600.000			-51.506			-5.151
223701.000			-51.506			-5.151
223800.000			-51.506			-5.151
223900.000			-51.504			-5.150
224000.000			-51.504			-5.150
224101.000			-51.503			-5.150
224202.000			-51.503			-5.150
224300.000			-51.502			-5.150
224400.000			-51.501			-5.150
224501.000			-51.501			-5.150
224600.000			-51.501			-5.150
224700.000			-51.500			-5.150
224801.000			-51.497			-5.150
224900.000			-51.497			-5.150
225001.000			-51.497			-5.150
225102.000			-51.496			-5.150
225200.000			-51.496			-5.150
225300.000			-51.496			-5.150
225401.000			-51.495			-5.149
225500.000			-51.494			-5.149
225600.000			-51.494			-5.149
225701.000			-51.493			-5.149
225800.000			-51.492			-5.149
225901.000			-51.491			-5.149
226002.000			-51.490			-5.149
226101.000			-51.489			-5.149
226200.000			-51.489			-5.149
226301.000			-51.489			-5.149
226400.000			-51.489			-5.149
226500.000			-51.487			-5.149
226601.000			-51.487			-5.149
226700.000			-51.486			-5.149
226800.000			-51.486			-5.149
226902.000			-51.484			-5.148
227001.000			-51.483			-5.148
227100.000			-51.482			-5.148
227200.000			-51.482			-5.148
227300.000			-51.483			-5.148
227401.000			-51.482			-5.148
227500.000			-51.480			-5.148
227600.000			-51.481			-5.148
227701.000			-51.479			-5.148
227801.000			-51.478			-5.148
227901.000			-51.477			-5.148
228002.000			-51.477			-5.148
228100.000			-51.477			-5.148
228200.000			-51.475			-5.147
228301.000			-51.475			-5.148
228400.000			-51.474			-5.147
228500.000			-51.473			-5.147
228601.000			-51.473			-5.147
228701.000			-51.472			-5.147
228801.000			-51.472			-5.147
228902.000			-51.472			-5.147
229000.000			-51.471			-5.147
229100.000			-51.469			-5.147
229201.000			-51.468			-5.147
229300.000			-51.468			-5.147
229400.000			-51.468			-5.147
229501.000			-51.468			-5.147
229600.000			-51.467			-5.147
229701.000			-51.466			-5.147
229802.000			-51.465			-5.146
229901.000			-51.463			-5.146
230000.000			-51.463			-5.146
230101.000			-51.462			-5.146
230200.000			-51.463			-5.146
230300.000			-51.463			-5.146
230400.000			-51.461			-5.146
230500.000			-51.461			-5.146
230602.000			-51.459			-5.146
230701.000			-51.459			-5.146
230801.000			-51.458			-5.146
230901.000			-51.459			-5.146
231000.000			-51.457			-5.146
231100.000			-51.456			-5.146
231201.000			-51.456			-5.146
231300.000			-51.455			-5.146
231400.000			-51.454			-5.145
231502.000			-51.454			-5.145
231601.000			-51.453			-5.145
231701.000			-51.451			-5.145
231801.000			-51.452			-5.145
231900.000			-51.451			-5.145
232000.000			-51.448			-5.145
232101.000			-51.449			-5.145
232200.000			-51.449			-5.145
232300.000			-51.448			-5.145
232402.000			-51.447			-5.145
232501.000			-51.447			-5.145
232601.000			-51.447			-5.145
232701.000			-51.445			-5.144
232800.000			-51.444			-5.144
232900.000			-51.443			-5.144
233001.000			-51.443			-5.144
233100.000			-51.442			-5.144
233200.000			-51.442			-5.144
233302.000			-51.441			-5.144
233401.000			-51.441			-5.144
233502.000			-51.439			-5.144
233600.000			-51.438			-5.144
233700.000			-51.438			-5.144
233801.000			-51.437			-5.144
233900.000			-51.438			-5.144
234000.000			-51.438			-5.144
234101.000			-51.436			-5.144
234200.000			-51.434			-5.143
234301.000			-51.434			-5.143
234402.000			-51.434			-5.143
234500.000			-51.434			-5.143
234600.000			-51.434			-5.143
234701.000			-51.433			-5.143
234800.000			-51.432			-5.143
234900.000			-51.431			-5.143
235001.000			-51.430			-5.143
235100.000			-51.429			-5.143
235201.000			-51.430			-5.143
235302.000			-51.430			-5.143
235400.000			-51.429			-5.143
235500.000			-51.428			-5.143
235601.000			-51.426			-5.143
235700.000			-51.425			-5.143
235800.000			-51.424			-5.142
235901.000			-51.425			-5.142
236000.000			-51.424			-5.142
236101.000			-51.423			-5.142
236202.000			-51.423			-5.142
236300.000			-51.423			-5.142
236400.000			-51.420			-5.142
236501.000			-51.420			-5.142
236600.000			-51.421			-5.142
236700.000			-51.419			-5.142
236800.000			-51.419			-5.142
236900.000			-51.419			-5.142
237002.000			-51.418			-5.142
237101.000			-51.417			-5.142
237201.000			-51.416			-5.142
237301.000			-51.416			-5.142
237400.000			-51.416			-5.142
237500.000			-51.415			-5.141
237601.000			-51.414			-5.141
237700.000			-51.413			-5.141
237800.000			-51.413			-5.141
237901.000			-51.412			-5.141
238001.000			-51.410			-5.141
238101.000			-51.410			-5.141
238201.000			-51.410			-5.141
238300.000			-51.410			-5.141
238400.000			-51.409			-5.141
238501.000			-51.408			-5.141
238600.000			-51.408			-5.141
238700.000			-51.407			-5.141
238801.000			-51.406			-5.141
238901.000			-51.406			-5.141
239001.000			-51.405			-5.140
239101.000			-51.404			-5.140
239200.000			-51.404			-5.140
239300.000			-51.403			-5.140
239401.000			-51.403			-5.140
239500.000			-51.402			-5.140
239600.000			-51.401			-5.140
239701.000			-51.400			-5.140
239801.000			-51.400			-5.140
239902.000			-51.400			-5.140
240001.000			-51.399			-5.140
240100.000			-51.398			-5.140
240201.000			-51.397			-5.140
240300.000			-51.396			-5.140
240400.000			-51.395			-5.140
240501.000			-51.395			-5.140
240600.000			-51.395			-5.140
240700.000			-51.395			-5.140
240802.000			-51.394			-5.139
240901.000			-51.393			-5.139
241000.000			-51.393			-5.139
241101.000			-51.392			-5.139
241200.000			-51.392			-5.139
241300.000			-51.390			-5.139
241401.000			-51.390			-5.139
241500.000			-51.388			-5.139
241600.000			-51.388			-5.139
241702.000			-51.388			-5.139
241801.000			-51.387			-5.139
241901.000			-51.387			-5.139
242001.000			-51.386			-5.139
242100.000			-51.386			-5.139
242200.000			-51.385			-5.138
242301.000			-51.384			-5.138
242400.000			-51.383			-5.138
242500.000			-51.384			-5.138
242602.000			-51.383			-5.138
242701.000			-51.383			-5.138
242801.000			-51.383			-5.138
242901.000			-51.380			-5.138
243000.000			-51.381			-5.138
243100.000			-51.380			-5.138
243200.000			-51.379			-5.138
243300.000			-51.378			-5.138
243401.000			-51.378			-5.138
243501.000			-51.377			-5.138
243601.000			-51.377			-5.138
243702.000			-51.376			-5.138
243800.000			-51.375			-5.138
243900.000			-51.374			-5.137
244001.000			-51.373			-5.137
244100.000			-51.373			-5.137
244200.000			-51.373			-5.137
244301.000			-51.372			-5.137
244400.000			-51.372			-5.137
244501.000			-51.371			-5.137
244602.000			-51.370			-5.137
244700.000			-51.370			-5.137
244800.000			-51.370			-5.137
244901.000			-51.370			-5.137
245000.000			-51.368			-5.137
245100.000			-51.367			-5.137
245201.000			-51.365			-5.137
245300.000			-51.364			-5.136
245400.000			-51.364			-5.136
245502.000			-51.364			-5.136
245601.000			-51.363			-5.136
245700.000			-51.363			-5.136
245801.000			-51.362			-5.136
245900.000			-51.362			-5.136
246000.000			-51.361			-5.136
246101.000			-51.361			-5.136
246200.000			-51.361			-5.136
246300.000			-51.360			-5.136
246402.000			-51.359			-5.136
246501.000			-51.357			-5.136
246601.000			-51.357			-5.136
246700.000			-51.357			-5.136
246800.000			-51.356			-5.136
246901.000			-51.356			-5.136
247000.000			-51.355			-5.136
247100.000			-51.355			-5.135
247201.000			-51.353			-5.135
247301.000			-51.352			-5.135
247401.000			-51.352			-5.135
247502.000			-51.351			-5.135
247600.000			-51.350			-5.135
247700.000			-51.350			-5.135
247801.000			-51.349			-5.135
247900.000			-51.348			-5.135
248000.000			-51.348			-5.135
248101.000			-51.348			-5.135
248200.000			-51.348			-5.135
248301.000			-51.347			-5.135
248402.000			-51.346			-5.135
248500.000			-51.345			-5.134
248600.000			-51.345			-5.134
248701.000			-51.343			-5.134
248800.000			-51.343			-5.134
248900.000			-51.342			-5.134
249001.000			-51.341			-5.134
249100.000			-51.340			-5.134
249201.000			-51.340			-5.134
249302.000			-51.340			-5.134
249401.000			-51.338			-5.134
249500.000			-51.339			-5.134
249600.000			-51.339			-5.134
249700.000			-51.338			-5.134
249801.000			-51.338			-5.134
249900.000			-51.338			-5.134
250000.000			-51.336			-5.134
250101.000			-51.334			-5.133
250201.000			-51.333			-5.133
250301.000			-51.333			-5.133
250401.000			-51.334			-5.133
250500.000			-51.333			-5.133
250600.000			-51.333			-5.133
250701.000			-51.331			-5.133
250800.000			-51.330			-5.133
250900.000			-51.329			-5.133
251001.000			-51.329			-5.133
251101.000			-51.329			-5.133
251201.000			-51.328			-5.133
251301.000			-51.328			-5.133
251400.000			-51.328			-5.133
251500.000			-51.327			-5.133
251601.000			-51.325			-5.133
251700.000			-51.325			-5.132
251800.000			-51.325			-5.133
251901.000			-51.324			-5.132
252001.000			-51.324			-5.132
252101.000			-51.323			-5.132
252201.000			-51.323			-5.132
252300.000			-51.322			-5.132
252400.000			-51.322			-5.132
252501.000			-51.321			-5.132
252600.000			-51.321			-5.132
252700.000			-51.320			-5.132
252800.000			-51.319			-5.132
252901.000			-51.319			-5.132
253002.000			-51.319			-5.132
253100.000			-51.317			-5.132
253200.000			-51.317			-5.132
253301.000			-51.315			-5.132
253400.000			-51.314			-5.131
253500.000			-51.315			-5.132
253601.000			-51.315			-5.131
253700.000			-51.315			-5.131
253801.000			-51.314			-5.131
253902.000			-51.313			-5.131
254000.000			-51.312			-5.131
254100.000			-51.311			-5.131
254201.000			-51.311			-5.131
254300.000			-51.310			-5.131
254400.000			-51.309			-5.131
254501.000			-51.309			-5.131
254600.000			-51.308			-5.131
254701.000			-51.307			-5.131
254802.000			-51.306			-5.131
254900.000			-51.307			-5.131
255000.000			-51.307			-5.131
255101.000			-51.306			-5.131
255200.000			-51.304			-5.130
255300.000			-51.303			-5.130
255401.000			-51.302			-5.130
255500.000			-51.302			-5.130
255601.000			-51.302			-5.130
255702.000			-51.301			-5.130
255801.000			-51.301			-5.130
255900.000			-51.300			-5.130
256000.000			-51.300			-5.130
256100.000			-51.299			-5.130
256201.000			-51.299			-5.130
256300.000			-51.300			-5.130
256400.000			-51.298			-5.130
256501.000			-51.296			-5.130
256601.000			-51.295			-5.130
256701.000			-51.295			-5.129
256801.000			-51.294			-5.129
256900.000			-51.294			-5.129
257000.000			-51.294			-5.129
257101.000			-51.294			-5.129
257200.000			-51.293			-5.129
257300.000			-51.292			-5.129
257401.000			-51.292			-5.129
257501.000			-51.291			-5.129
257601.000			-51.289			-5.129
257702.000			-51.289			-5.129
257800.000			-51.289			-5.129
257900.000			-51.288			-5.129
258001.000			-51.287			-5.129
258100.000			-51.287			-5.129
258200.000			-51.287			-5.129
258301.000			-51.286			-5.129
258400.000			-51.285			-5.129
258501.000			-51.285			-5.128
258602.000			-51.285			-5.128
258701.000			-51.284			-5.128
258800.000			-51.283			-5.128
258901.000			-51.282			-5.128
259000.000			-51.281			-5.128
259100.000			-51.281			-5.128
259200.000			-51.280			-5.128
259300.000			-51.280			-5.128
259402.000			-51.279			-5.128
259501.000			-51.279			-5.128
259601.000			-51.279			-5.128
259701.000			-51.278			-5.128
259800.000			-51.277			-5.128
259900.000			-51.277			-5.128
260001.000			-51.277			-5.128
260100.000			-51.276			-5.128
260200.000			-51.274			-5.127
260301.000			-51.274			-5.127
260401.000			-51.274			-5.127
260501.000			-51.273			-5.127
260601.000			-51.273			-5.127
260700.000			-51.272			-5.127
260800.000			-51.271			-5.127
260901.000			-51.270			-5.127
261000.000			-51.269			-5.127
261100.000			-51.270			-5.127
261201.000			-51.268			-5.127
261301.000			-51.267			-5.127
261401.000			-51.268			-5.127
261501.000			-51.268			-5.127
261600.000			-51.267			-5.127
261700.000			-51.265			-5.127
261801.000			-51.266			-5.127
261900.000			-51.265			-5.127
262000.000			-51.264			-5.126
262101.000			-51.264			-5.126
262201.000			-51.265			-5.127
262302.000			-51.263			-5.126
262401.000			-51.262			-5.126
262500.000			-51.261			-5.126
262601.000			-51.260			-5.126
262700.000			-51.260			-5.126
262800.000			-51.260			-5.126
262901.000			-51.261			-5.126
263000.000			-51.260			-5.126
263100.000			-51.256			-5.126
263202.000			-51.256			-5.126
263301.000			-51.257			-5.126
263400.000			-51.257			-5.126
263501.000			-51.256			-5.126
263600.000			-51.256			-5.126
263700.000			-51.255			-5.126
263801.000			-51.254			-5.125
263900.000			-51.253			-5.125
264000.000			-51.253			-5.125
264102.000			-51.252			-5.125
264201.000			-51.252			-5.125
264300.000			-51.251			-5.125
264401.000			-51.250			-5.125
264500.000			-51.250			-5.125
264600.000			-51.250			-5.125
264701.000			-51.249			-5.125
264800.000			-51.248			-5.125
264900.000			-51.247			-5.125
265002.000			-51.247			-5.125
265101.000			-51.247			-5.125
265200.000			-51.245			-5.125
265301.000			-51.245			-5.125
265400.000			-51.244			-5.124
265500.000			-51.244			-5.124
265600.000			-51.244			-5.124
265700.000			-51.243			-5.124
265801.000			-51.242			-5.124
265901.000			-51.241			-5.124
266001.000			-51.241			-5.124
266101.000			-51.240			-5.124
266200.000			-51.239			-5.124
266300.000			-51.238			-5.124
266401.000			-51.238			-5.124
266500.000			-51.238			-5.124
266600.000			-51.237			-5.124
266701.000			-51.237			-5.124
266801.000			-51.237			-5.124
266901.000			-51.237			-5.124
267002.000			-51.236			-5.124
267100.000			-51.236			-5.124
267200.000			-51.234			-5.123
267301.000			-51.233			-5.123
267400.000			-51.233			-5.123
267500.000			-51.232			-5.123
267601.000			-51.233			-5.123
267700.000			-51.232			-5.123
267801.000			-51.230			-5.123
267902.000			-51.230			-5.123
268000.000			-51.230			-5.123
268100.000			-51.228			-5.123
268201.000			-51.228			-5.123
268300.000			-51.227			-5.123
268400.000			-51.227			-5.123
268501.000			-51.227			-5.123
268600.000			-51.226			-5.123
268702.000			-51.225			-5.122
268801.000			-51.224			-5.122
268901.000			-51.224			-5.122
269001.000			-51.224			-5.122
269100.000			-51.224			-5.122
269200.000			-51.223			-5.122
269301.000			-51.222			-5.122
269400.000			-51.222			-5.122
269500.000			-51.221			-5.122
269602.000			-51.220			-5.122
269701.000			-51.219			-5.122
269801.000			-51.219			-5.122
269901.000			-51.218			-5.122
270000.000			-51.219			-5.122
270100.000			-51.218			-5.122
270201.000			-51.217			-5.122
270300.000			-51.216			-5.122
270400.000			-51.216			-5.122
270502.000			-51.216			-5.122
270601.000			-51.216			-5.122
270701.000			-51.215			-5.121
270801.000			-51.214			-5.121
270900.000			-51.213			-5.121
271000.000			-51.212			-5.121
271101.000			-51.212			-5.121
271200.000			-51.211			-5.121
271300.000			-51.210			-5.121
271402.000			-51.210			-5.121
271501.000			-51.210			-5.121
271600.000			-51.209			-5.121
271701.000			-51.209			-5.121
271800.000			-51.207			-5.121
271900.000			-51.208			-5.121
272000.000			-51.208			-5.121
272100.000			-51.207			-5.121
272201.000			-51.206			-5.121
272301.000			-51.205			-5.121
272401.000			-51.205			-5.120
272501.000			-51.204			-5.120
272600.000			-51.203			-5.120
272700.000			-51.202			-5.120
272801.000			-51.203			-5.120
272900.000			-51.202			-5.120
273000.000			-51.202			-5.120
273101.000			-51.200			-5.120
273201.000			-51.201			-5.120
273301.000			-51.200			-5.120
273401.000			-51.198			-5.120
273500.000			-51.198			-5.120
273600.000			-51.197			-5.120
273701.000			-51.198			-5.120
273800.000			-51.197			-5.120
273900.000			-51.196			-5.120
274001.000			-51.196			-5.120
274101.000			-51.195			-5.119
274201.000			-51.193			-5.119
274302.000			-51.193			-5.119
274400.000			-51.193			-5.119
274500.000			-51.193			-5.119
274601.000			-51.192			-5.119
274700.000			-51.191			-5.119
274800.000			-51.191			-5.119
274901.000			-51.190			-5.119
275001.000			-51.190			-5.119
275102.000			-51.190			-5.119
275201.000			-51.189			-5.119
275300.000			-51.188			-5.119
275401.000			-51.188			-5.119
275500.000			-51.188			-5.119
275600.000			-51.187			-5.119
275701.000			-51.186			-5.119
275800.000			-51.185			-5.119
275900.000			-51.185			-5.118
276002.000			-51.184			-5.118
276101.000			-51.183			-5.118
276201.000			-51.182			-5.118
276301.000			-51.181			-5.118
276400.000			-51.182			-5.118
276500.000			-51.181			-5.118
276601.000			-51.181			-5.118
276700.000			-51.181			-5.118
276800.000			-51.180			-5.118
276902.000			-51.179			-5.118
277001.000			-51.179			-5.118
277101.000			-51.179			-5.118
277201.000			-51.178			-5.118
277300.000			-51.177			-5.118
277400.000			-51.177			-5.118
277501.000			-51.176			-5.118
277600.000			-51.174			-5.117
277700.000			-51.174			-5.117
277801.000			-51.175			-5.118
277901.000			-51.175			-5.117
278001.000			-51.173			-5.117
278101.000			-51.173			-5.117
278200.000			-51.172			-5.117
278300.000			-51.171			-5.117
278400.000			-51.171			-5.117
278500.000			-51.170			-5.117
278601.000			-51.169			-5.117
278700.000			-51.169			-5.117
278800.000			-51.168			-5.117
278902.000			-51.168			-5.117
279001.000			-51.168			-5.117
279100.000			-51.167			-5.117
279201.000			-51.166			-5.117
279300.000			-51.165			-5.116
279400.000			-51.165			-5.116
279501.000			-51.164			-5.116
279600.000			-51.164			-5.116
279700.000			-51.164			-5.116
279802.000			-51.163			-5.116
279901.000			-51.163			-5.116
280001.000			-51.163			-5.116
280101.000			-51.163			-5.116
280200.000			-51.162			-5.116
280300.000			-51.162			-5.116
280401.000			-51.161			-5.116
280500.000			-51.159			-5.116
280600.000			-51.159			-5.116
280702.000			-51.158			-5.116
280801.000			-51.158			-5.116
280901.000			-51.158			-5.116
281001.000			-51.157			-5.116
281100.000			-51.157			-5.116
281200.000			-51.156			-5.116
281301.000			-51.155			-5.115
281400.000			-51.155			-5.115
281500.000			-51.155			-5.116
281600.000			-51.154			-5.115
281701.000			-51.154			-5.115
281802.000			-51.153			-5.115
281900.000			-51.153			-5.115
282000.000			-51.150			-5.115
282101.000			-51.150			-5.115
282200.000			-51.149			-5.115
282300.000			-51.150			-5.115
282401.000			-51.150			-5.115
282500.000			-51.149			-5.115
282601.000			-51.148			-5.115
282702.000			-51.147			-5.115
282800.000			-51.147			-5.115
282900.000			-51.147			-5.115
283001.000			-51.146			-5.115
283100.000			-51.145			-5.114
283200.000			-51.145			-5.114
283301.000			-51.144			-5.114
283400.000			-51.143			-5.114
283501.000			-51.143			-5.114
283602.000			-51.143			-5.114
283701.000			-51.143			-5.114
283800.000			-51.142			-5.114
283901.000			-51.141			-5.114
284000.000			-51.142			-5.114
284100.000			-51.141			-5.114
284201.000			-51.140			-5.114
284300.000			-51.139			-5.114
284401.000			-51.138			-5.114
284502.000			-51.138			-5.114
284601.000			-51.138			-5.114
284700.000			-51.136			-5.114
284800.000			-51.136			-5.114
284900.000			-51.136			-5.114
285001.000			-51.135			-5.113
285100.000			-51.135			-5.114
285200.000			-51.134			-5.113
285302.000			-51.133			-5.113
285401.000			-51.134			-5.113
285501.000			-51.133			-5.113
285601.000			-51.132			-5.113
285700.000			-51.132			-5.113
285800.000			-51.131			-5.113
285901.000			-51.130			-5.113
286000.000			-51.130			-5.113
286100.000			-51.130			-5.113
286202.000			-51.129			-5.113
286301.000			-51.128			-5.113
286401.000			-51.127			-5.113
286501.000			-51.126			-5.113
286600.000			-51.126			-5.113
286700.000			-51.126			-5.113
286801.000			-51.125			-5.113
286900.000			-51.125			-5.112
287000.000			-51.123			-5.112
287101.000			-51.123			-5.112
287201.000			-51.123			-5.112
287301.000			-51.122			-5.112
287401.000			-51.121			-5.112
287500.000			-51.121			-5.112
287600.000			-51.121			-5.112
287701.000			-51.120			-5.112
287800.000			-51.121			-5.112
287900.000			-51.120			-5.112
288000.000			-51.119			-5.112
288101.000			-51.118			-5.112
288202.000			-51.117			-5.112
288300.000			-51.117			-5.112
288400.000			-51.116			-5.112
288501.000			-51.118			-5.112
288600.000			-51.117			-5.112
288700.000			-51.115			-5.111
288801.000			-51.114			-5.111
288900.000			-51.114			-5.111
289001.000			-51.114			-5.111
289102.000			-51.113			-5.111
289201.000			-51.113			-5.111
289300.000			-51.112			-5.111
289401.000			-51.111			-5.111
289500.000			-51.112			-5.111
289600.000			-51.112			-5.111
289701.000			-51.110			-5.111
289800.000			-51.109			-5.111
289900.000			-51.108			-5.111
290002.000			-51.108			-5.111
290101.000			-51.108			-5.111
290200.000			-51.107			-5.111
290301.000			-51.106			-5.111
290400.000			-51.107			-5.111
290500.000			-51.106			-5.111
290601.000			-51.105			-5.110
290700.000			-51.105			-5.110
290800.000			-51.104			-5.110
290902.000			-51.103			-5.110
291001.000			-51.103			-5.110
291100.000			-51.102			-5.110
291200.000			-51.102			-5.110
291300.000			-51.102			-5.110
291401.000			-51.100			-5.110
291500.000			-51.100			-5.110
291600.000			-51.100			-5.110
291702.000			-51.100			-5.110
291801.000			-51.098			-5.110
291901.000			-51.097			-5.110
292001.000			-51.097			-5.110
292100.000			-51.096			-5.110
292200.000			-51.096			-5.110
292301.000			-51.096			-5.110
292400.000			-51.095			-5.109
292500.000			-51.095			-5.110
292601.000			-51.094			-5.109
292701.000			-51.093			-5.109
292801.000			-51.094			-5.109
292901.000			-51.094			-5.109
293000.000			-51.093			-5.109
293100.000			-51.091			-5.109
293201.000			-51.091			-5.109
293300.000			-51.091			-5.109
293400.000			-51.090			-5.109
293501.000			-51.091			-5.109
293601.000			-51.090			-5.109
293701.000			-51.089			-5.109
293801.000			-51.088			-5.109
293900.000			-51.087			-5.109
294000.000			-51.087			-5.109
294101.000			-51.087			-5.109
294200.000			-51.086			-5.109
294300.000			-51.084			-5.108
294400.000			-51.084			-5.108
294500.000			-51.085			-5.108
294602.000			-51.084			-5.108
294701.000			-51.082			-5.108
294800.000			-51.082			-5.108
294901.000			-51.082			-5.108
295000.000			-51.082			-5.108
295100.000			-51.082			-5.108
295201.000			-51.081			-5.108
295300.000			-51.081			-5.108
295400.000			-51.080			-5.108
295502.000			-51.079			-5.108
295601.000			-51.078			-5.108
295701.000			-51.078			-5.108
295801.000			-51.078			-5.108
295900.000			-51.078			-5.108
296000.000			-51.078			-5.108
296101.000			-51.076			-5.108
296200.000			-51.075			-5.108
296300.000			-51.075			-5.108
296401.000			-51.074			-5.107
296501.000			-51.074			-5.107
296601.000			-51.073			-5.107
296701.000			-51.073			-5.107
296800.000			-51.072			-5.107
296900.000			-51.072			-5.107
297001.000			-51.072			-5.107
297100.000			-51.071			-5.107
297200.000			-51.070			-5.107
297301.000			-51.070			-5.107
297401.000			-51.070			-5.107
297502.000			-51.068			-5.107
297601.000			-51.067			-5.107
297700.000			-51.067			-5.107
297801.000			-51.067			-5.107
297900.000			-51.066			-5.107
298000.000			-51.066			-5.107
298101.000			-51.066			-5.107
298200.000			-51.066			-5.107
298300.000			-51.065			-5.107
298402.000			-51.063			-5.106
298501.000			-51.064			-5.106
298600.000			-51.063			-5.106
298701.000			-51.063			-5.106
298800.000			-51.063			-5.106
298900.000			-51.062			-5.106
299001.000			-51.061			-5.106
299100.000			-51.061			-5.106
299200.000			-51.060			-5.106
299302.000			-51.059			-5.106
299401.000			-51.059			-5.106
299501.000			-51.058			-5.106
299601.000			-51.057			-5.106
299700.000			-51.057			-5.106
299800.000			-51.057			-5.106
299901.000			-51.056			-5.106
