# Acquired on 29/01/2024 16:41:24 
# SPIDER: Creep_9mm_HM077x145x38AA-1
# CREEP MEASUREMENT

# time [ms]		force [N]		stiffness [N/mm]
1.000			-49.872			-5.541
105.000			-50.756			-5.640
204.000			-50.886			-5.654
304.000			-50.650			-5.628
404.000			-50.493			-5.610
504.000			-50.387			-5.599
604.000			-50.216			-5.580
705.000			-50.146			-5.572
804.000			-50.083			-5.565
903.000			-50.025			-5.558
1005.000			-49.973			-5.553
1104.000			-49.924			-5.547
1204.000			-49.878			-5.542
1305.000			-49.791			-5.532
1404.000			-49.755			-5.528
1504.000			-49.718			-5.524
1604.000			-49.683			-5.520
1704.000			-49.651			-5.517
1804.000			-49.620			-5.513
1905.000			-49.588			-5.510
2004.000			-49.534			-5.504
2104.000			-49.507			-5.501
2205.000			-49.481			-5.498
2303.000			-49.454			-5.495
2404.000			-49.429			-5.492
2505.000			-49.406			-5.490
2604.000			-49.384			-5.487
2704.000			-49.342			-5.482
2805.000			-49.321			-5.480
2904.000			-49.301			-5.478
3003.000			-49.280			-5.476
3105.000			-49.260			-5.473
3204.000			-49.243			-5.471
3305.000			-49.226			-5.470
3404.000			-49.192			-5.466
3503.000			-49.174			-5.464
3605.000			-49.158			-5.462
3704.000			-49.142			-5.460
3804.000			-49.126			-5.458
3905.000			-49.109			-5.457
4004.000			-49.094			-5.455
4104.000			-49.078			-5.453
4204.000			-49.052			-5.450
4304.000			-49.037			-5.449
4404.000			-49.023			-5.447
4505.000			-49.010			-5.446
4604.000			-48.998			-5.444
4704.000			-48.984			-5.443
4805.000			-48.972			-5.441
4903.000			-48.945			-5.438
5004.000			-48.933			-5.437
5105.000			-48.921			-5.436
5204.000			-48.910			-5.434
5304.000			-48.898			-5.433
5404.000			-48.887			-5.432
5504.000			-48.876			-5.431
5603.000			-48.853			-5.428
5705.000			-48.842			-5.427
5804.000			-48.831			-5.426
5904.000			-48.820			-5.424
6005.000			-48.810			-5.423
6103.000			-48.800			-5.422
6204.000			-48.791			-5.421
6305.000			-48.771			-5.419
6404.000			-48.760			-5.418
6505.000			-48.750			-5.417
6604.000			-48.741			-5.416
6704.000			-48.734			-5.415
6804.000			-48.724			-5.414
6904.000			-48.715			-5.413
7004.000			-48.706			-5.412
7105.000			-48.687			-5.410
7204.000			-48.678			-5.409
7304.000			-48.671			-5.408
7405.000			-48.661			-5.407
7503.000			-48.652			-5.406
7604.000			-48.644			-5.405
7705.000			-48.637			-5.404
7804.000			-48.621			-5.402
7904.000			-48.613			-5.401
8005.000			-48.605			-5.401
8104.000			-48.598			-5.400
8203.000			-48.589			-5.399
8305.000			-48.581			-5.398
8404.000			-48.575			-5.397
8504.000			-48.560			-5.396
8605.000			-48.552			-5.395
8703.000			-48.544			-5.394
8804.000			-48.536			-5.393
8905.000			-48.529			-5.392
9004.000			-48.523			-5.391
9104.000			-48.515			-5.391
9205.000			-48.503			-5.389
9304.000			-48.496			-5.388
9403.000			-48.488			-5.388
9505.000			-48.481			-5.387
9604.000			-48.473			-5.386
9705.000			-48.467			-5.385
9804.000			-48.462			-5.385
9904.000			-48.449			-5.383
10005.000			-48.443			-5.383
10103.000			-48.436			-5.382
10204.000			-48.429			-5.381
10305.000			-48.423			-5.380
10404.000			-48.416			-5.380
10504.000			-48.409			-5.379
10605.000			-48.405			-5.378
10704.000			-48.393			-5.377
10803.000			-48.388			-5.376
10905.000			-48.382			-5.376
11004.000			-48.376			-5.375
11104.000			-48.368			-5.374
11205.000			-48.362			-5.374
11304.000			-48.357			-5.373
11404.000			-48.347			-5.372
11504.000			-48.341			-5.371
11604.000			-48.336			-5.371
11704.000			-48.331			-5.370
11805.000			-48.325			-5.369
11904.000			-48.320			-5.369
12004.000			-48.313			-5.368
12105.000			-48.302			-5.367
12204.000			-48.297			-5.366
12304.000			-48.291			-5.366
12405.000			-48.285			-5.365
12504.000			-48.279			-5.364
12604.000			-48.275			-5.364
12704.000			-48.271			-5.363
12804.000			-48.260			-5.362
12904.000			-48.255			-5.362
13004.000			-48.249			-5.361
13104.000			-48.244			-5.360
13205.000			-48.239			-5.360
13304.000			-48.233			-5.359
13403.000			-48.229			-5.359
13505.000			-48.220			-5.358
13604.000			-48.214			-5.357
13704.000			-48.210			-5.357
13805.000			-48.205			-5.356
13904.000			-48.199			-5.355
14004.000			-48.195			-5.355
14104.000			-48.192			-5.355
14204.000			-48.188			-5.354
14304.000			-48.178			-5.353
14405.000			-48.172			-5.352
14504.000			-48.168			-5.352
14604.000			-48.163			-5.351
14705.000			-48.159			-5.351
14803.000			-48.155			-5.351
14904.000			-48.150			-5.350
15005.000			-48.140			-5.349
15104.000			-48.136			-5.348
15204.000			-48.133			-5.348
15305.000			-48.130			-5.348
15404.000			-48.125			-5.347
15503.000			-48.120			-5.347
15605.000			-48.114			-5.346
15704.000			-48.107			-5.345
15804.000			-48.103			-5.345
15905.000			-48.100			-5.344
16004.000			-48.096			-5.344
16105.000			-48.090			-5.343
16203.000			-48.085			-5.343
16304.000			-48.083			-5.343
16405.000			-48.075			-5.342
16504.000			-48.070			-5.341
16604.000			-48.066			-5.341
16705.000			-48.063			-5.340
16804.000			-48.060			-5.340
16903.000			-48.055			-5.339
17005.000			-48.052			-5.339
17104.000			-48.047			-5.339
17204.000			-48.038			-5.338
17305.000			-48.035			-5.337
17404.000			-48.031			-5.337
17504.000			-48.028			-5.336
17604.000			-48.024			-5.336
17704.000			-48.019			-5.335
17804.000			-48.015			-5.335
17905.000			-48.008			-5.334
18004.000			-48.004			-5.334
18103.000			-48.000			-5.333
18205.000			-47.997			-5.333
18304.000			-47.993			-5.333
18404.000			-47.991			-5.332
18505.000			-47.988			-5.332
18604.000			-47.978			-5.331
18704.000			-47.974			-5.330
18805.000			-47.971			-5.330
18904.000			-47.968			-5.330
19003.000			-47.964			-5.329
19105.000			-47.960			-5.329
19204.000			-47.958			-5.329
19305.000			-47.951			-5.328
19404.000			-47.949			-5.328
19504.000			-47.944			-5.327
19605.000			-47.940			-5.327
19703.000			-47.937			-5.326
19804.000			-47.933			-5.326
19905.000			-47.930			-5.326
20004.000			-47.927			-5.325
20104.000			-47.919			-5.324
20205.000			-47.916			-5.324
20304.000			-47.914			-5.324
20403.000			-47.909			-5.323
20505.000			-47.907			-5.323
20604.000			-47.904			-5.323
20704.000			-47.900			-5.322
20805.000			-47.893			-5.321
20904.000			-47.889			-5.321
21004.000			-47.886			-5.321
21104.000			-47.883			-5.320
21204.000			-47.880			-5.320
21304.000			-47.878			-5.320
21405.000			-47.874			-5.319
21504.000			-47.869			-5.319
21603.000			-47.866			-5.318
21705.000			-47.862			-5.318
21804.000			-47.858			-5.318
21904.000			-47.855			-5.317
22005.000			-47.852			-5.317
22104.000			-47.849			-5.317
22204.000			-47.843			-5.316
22303.000			-47.840			-5.316
22404.000			-47.838			-5.315
22505.000			-47.833			-5.315
22604.000			-47.831			-5.315
22704.000			-47.828			-5.314
22805.000			-47.825			-5.314
22904.000			-47.820			-5.313
23003.000			-47.817			-5.313
23105.000			-47.813			-5.313
23204.000			-47.810			-5.312
23304.000			-47.808			-5.312
23405.000			-47.804			-5.312
23504.000			-47.801			-5.311
23604.000			-47.798			-5.311
23704.000			-47.791			-5.310
23804.000			-47.789			-5.310
23904.000			-47.787			-5.310
24005.000			-47.784			-5.309
24104.000			-47.780			-5.309
24204.000			-47.778			-5.309
24305.000			-47.775			-5.308
24403.000			-47.771			-5.308
24504.000			-47.768			-5.308
24605.000			-47.765			-5.307
24704.000			-47.762			-5.307
24804.000			-47.759			-5.307
24905.000			-47.756			-5.306
25004.000			-47.754			-5.306
25103.000			-47.748			-5.305
25205.000			-47.745			-5.305
25304.000			-47.742			-5.305
25404.000			-47.739			-5.304
25505.000			-47.738			-5.304
25604.000			-47.737			-5.304
25705.000			-47.732			-5.304
25804.000			-47.727			-5.303
25904.000			-47.725			-5.303
26004.000			-47.722			-5.302
26104.000			-47.718			-5.302
26204.000			-47.715			-5.302
26305.000			-47.712			-5.301
26404.000			-47.710			-5.301
26503.000			-47.708			-5.301
26605.000			-47.702			-5.300
26704.000			-47.700			-5.300
26804.000			-47.698			-5.300
26905.000			-47.694			-5.299
27004.000			-47.692			-5.299
27104.000			-47.690			-5.299
27204.000			-47.688			-5.299
27304.000			-47.682			-5.298
27403.000			-47.680			-5.298
27505.000			-47.678			-5.298
27604.000			-47.676			-5.297
27704.000			-47.673			-5.297
27805.000			-47.670			-5.297
27904.000			-47.668			-5.296
28004.000			-47.662			-5.296
28104.000			-47.661			-5.296
28204.000			-47.660			-5.296
28304.000			-47.657			-5.295
28405.000			-47.654			-5.295
28504.000			-47.652			-5.295
28604.000			-47.649			-5.294
28705.000			-47.643			-5.294
28803.000			-47.641			-5.293
28905.000			-47.639			-5.293
29004.000			-47.637			-5.293
29104.000			-47.634			-5.293
29205.000			-47.632			-5.292
29304.000			-47.628			-5.292
29404.000			-47.624			-5.292
29504.000			-47.621			-5.291
29604.000			-47.620			-5.291
29704.000			-47.617			-5.291
29805.000			-47.613			-5.290
29904.000			-47.612			-5.290
30004.000			-47.611			-5.290
30105.000			-47.608			-5.290
30203.000			-47.603			-5.289
30304.000			-47.600			-5.289
30405.000			-47.597			-5.289
30504.000			-47.596			-5.288
30604.000			-47.594			-5.288
30704.000			-47.592			-5.288
30804.000			-47.590			-5.288
30903.000			-47.585			-5.287
31005.000			-47.583			-5.287
31104.000			-47.580			-5.287
31204.000			-47.578			-5.286
31305.000			-47.576			-5.286
31403.000			-47.574			-5.286
31504.000			-47.572			-5.286
31605.000			-47.567			-5.285
31704.000			-47.565			-5.285
31804.000			-47.564			-5.285
31904.000			-47.562			-5.285
32004.000			-47.560			-5.284
32104.000			-47.557			-5.284
32204.000			-47.555			-5.284
32304.000			-47.549			-5.283
32405.000			-47.547			-5.283
32504.000			-47.546			-5.283
32604.000			-47.543			-5.283
32705.000			-47.541			-5.282
32803.000			-47.539			-5.282
32904.000			-47.538			-5.282
33005.000			-47.534			-5.282
33104.000			-47.532			-5.281
33204.000			-47.528			-5.281
33305.000			-47.527			-5.281
33404.000			-47.525			-5.281
33503.000			-47.523			-5.280
33605.000			-47.521			-5.280
33704.000			-47.518			-5.280
33804.000			-47.514			-5.279
33905.000			-47.512			-5.279
34004.000			-47.511			-5.279
34104.000			-47.509			-5.279
34204.000			-47.506			-5.278
34304.000			-47.504			-5.278
34404.000			-47.502			-5.278
34505.000			-47.497			-5.277
34604.000			-47.495			-5.277
34704.000			-47.493			-5.277
34805.000			-47.491			-5.277
34903.000			-47.490			-5.277
35004.000			-47.487			-5.276
35105.000			-47.485			-5.276
35204.000			-47.481			-5.276
35305.000			-47.480			-5.276
35404.000			-47.478			-5.275
35504.000			-47.477			-5.275
35604.000			-47.475			-5.275
35704.000			-47.472			-5.275
35804.000			-47.470			-5.274
35905.000			-47.465			-5.274
36004.000			-47.464			-5.274
36104.000			-47.463			-5.274
36205.000			-47.461			-5.273
36303.000			-47.458			-5.273
36404.000			-47.457			-5.273
36505.000			-47.455			-5.273
36604.000			-47.454			-5.273
36704.000			-47.449			-5.272
36805.000			-47.447			-5.272
36904.000			-47.445			-5.272
37003.000			-47.442			-5.271
37105.000			-47.441			-5.271
37204.000			-47.439			-5.271
37304.000			-47.437			-5.271
37405.000			-47.434			-5.270
37504.000			-47.433			-5.270
37604.000			-47.432			-5.270
37704.000			-47.430			-5.270
37804.000			-47.428			-5.270
37904.000			-47.426			-5.270
38005.000			-47.423			-5.269
38104.000			-47.418			-5.269
38204.000			-47.417			-5.269
38305.000			-47.415			-5.268
38403.000			-47.414			-5.268
38505.000			-47.413			-5.268
38604.000			-47.410			-5.268
38704.000			-47.407			-5.267
38805.000			-47.405			-5.267
38904.000			-47.403			-5.267
39004.000			-47.401			-5.267
39104.000			-47.399			-5.267
39204.000			-47.398			-5.266
39304.000			-47.396			-5.266
39405.000			-47.394			-5.266
39504.000			-47.391			-5.266
39604.000			-47.388			-5.265
39705.000			-47.387			-5.265
39803.000			-47.385			-5.265
39904.000			-47.383			-5.265
40005.000			-47.382			-5.265
40104.000			-47.380			-5.264
40204.000			-47.378			-5.264
40305.000			-47.373			-5.264
40404.000			-47.371			-5.263
40503.000			-47.370			-5.263
40605.000			-47.368			-5.263
40704.000			-47.365			-5.263
40804.000			-47.365			-5.263
40905.000			-47.363			-5.263
41004.000			-47.360			-5.262
41104.000			-47.358			-5.262
41204.000			-47.356			-5.262
41304.000			-47.354			-5.262
41404.000			-47.352			-5.261
41504.000			-47.351			-5.261
41604.000			-47.350			-5.261
41704.000			-47.346			-5.261
41804.000			-47.344			-5.260
41903.000			-47.343			-5.260
42005.000			-47.342			-5.260
42104.000			-47.340			-5.260
42204.000			-47.338			-5.260
42305.000			-47.335			-5.259
42403.000			-47.334			-5.259
42504.000			-47.330			-5.259
42605.000			-47.329			-5.259
42704.000			-47.328			-5.259
42804.000			-47.326			-5.258
42905.000			-47.325			-5.258
43004.000			-47.324			-5.258
43103.000			-47.321			-5.258
43205.000			-47.318			-5.258
43304.000			-47.316			-5.257
43404.000			-47.314			-5.257
43505.000			-47.313			-5.257
43604.000			-47.312			-5.257
43704.000			-47.311			-5.257
43804.000			-47.308			-5.256
43904.000			-47.305			-5.256
44004.000			-47.304			-5.256
44105.000			-47.302			-5.256
44204.000			-47.300			-5.256
44304.000			-47.299			-5.255
44405.000			-47.296			-5.255
44503.000			-47.295			-5.255
44604.000			-47.293			-5.255
44705.000			-47.291			-5.255
44804.000			-47.288			-5.254
44905.000			-47.287			-5.254
45004.000			-47.285			-5.254
45104.000			-47.283			-5.254
45204.000			-47.282			-5.254
45304.000			-47.280			-5.253
45404.000			-47.278			-5.253
45505.000			-47.276			-5.253
45604.000			-47.274			-5.253
45704.000			-47.273			-5.253
45805.000			-47.272			-5.252
45903.000			-47.271			-5.252
46004.000			-47.269			-5.252
46105.000			-47.265			-5.252
46204.000			-47.263			-5.251
46304.000			-47.261			-5.251
46405.000			-47.262			-5.251
46504.000			-47.261			-5.251
46603.000			-47.259			-5.251
46705.000			-47.257			-5.251
46804.000			-47.254			-5.250
46904.000			-47.253			-5.250
47005.000			-47.251			-5.250
47104.000			-47.249			-5.250
47204.000			-47.247			-5.250
47304.000			-47.247			-5.250
47404.000			-47.244			-5.249
47504.000			-47.241			-5.249
47605.000			-47.240			-5.249
47704.000			-47.238			-5.249
47804.000			-47.237			-5.249
47905.000			-47.235			-5.248
48003.000			-47.235			-5.248
48105.000			-47.233			-5.248
48204.000			-47.230			-5.248
48304.000			-47.228			-5.248
48405.000			-47.227			-5.247
48504.000			-47.225			-5.247
48604.000			-47.223			-5.247
48704.000			-47.222			-5.247
48804.000			-47.221			-5.247
48904.000			-47.218			-5.246
49005.000			-47.216			-5.246
49104.000			-47.216			-5.246
49204.000			-47.214			-5.246
49305.000			-47.212			-5.246
49403.000			-47.211			-5.246
49504.000			-47.209			-5.245
49605.000			-47.208			-5.245
49704.000			-47.205			-5.245
49804.000			-47.204			-5.245
49905.000			-47.202			-5.245
50004.000			-47.200			-5.244
50103.000			-47.199			-5.244
50205.000			-47.198			-5.244
50304.000			-47.197			-5.244
50404.000			-47.193			-5.244
50505.000			-47.191			-5.243
50603.000			-47.191			-5.243
50704.000			-47.190			-5.243
50805.000			-47.187			-5.243
50904.000			-47.185			-5.243
51004.000			-47.184			-5.243
51104.000			-47.182			-5.242
51204.000			-47.180			-5.242
51304.000			-47.178			-5.242
51404.000			-47.177			-5.242
51504.000			-47.176			-5.242
51605.000			-47.175			-5.242
51704.000			-47.173			-5.241
51804.000			-47.170			-5.241
51905.000			-47.168			-5.241
52003.000			-47.168			-5.241
52104.000			-47.168			-5.241
52205.000			-47.167			-5.241
52304.000			-47.164			-5.240
52404.000			-47.162			-5.240
52505.000			-47.160			-5.240
52604.000			-47.159			-5.240
52703.000			-47.159			-5.240
52805.000			-47.158			-5.240
52903.000			-47.156			-5.240
53004.000			-47.154			-5.239
53105.000			-47.152			-5.239
53204.000			-47.151			-5.239
53304.000			-47.147			-5.239
53404.000			-47.146			-5.238
53504.000			-47.145			-5.238
53604.000			-47.143			-5.238
53705.000			-47.141			-5.238
53804.000			-47.141			-5.238
53904.000			-47.140			-5.238
54005.000			-47.137			-5.237
54103.000			-47.136			-5.237
54204.000			-47.135			-5.237
54305.000			-47.133			-5.237
54404.000			-47.131			-5.237
54505.000			-47.130			-5.237
54604.000			-47.129			-5.237
54704.000			-47.127			-5.236
54804.000			-47.126			-5.236
54904.000			-47.124			-5.236
55004.000			-47.122			-5.236
55105.000			-47.121			-5.236
55204.000			-47.120			-5.236
55304.000			-47.119			-5.235
55405.000			-47.116			-5.235
55503.000			-47.113			-5.235
55604.000			-47.112			-5.235
55705.000			-47.111			-5.235
55804.000			-47.111			-5.235
55904.000			-47.111			-5.235
56004.000			-47.109			-5.234
56104.000			-47.107			-5.234
56204.000			-47.105			-5.234
56305.000			-47.104			-5.234
56404.000			-47.103			-5.234
56504.000			-47.100			-5.233
56605.000			-47.099			-5.233
56703.000			-47.098			-5.233
56804.000			-47.097			-5.233
56905.000			-47.094			-5.233
57004.000			-47.093			-5.233
57104.000			-47.092			-5.232
57205.000			-47.090			-5.232
57304.000			-47.090			-5.232
57403.000			-47.088			-5.232
57505.000			-47.087			-5.232
57604.000			-47.084			-5.232
57705.000			-47.084			-5.232
57804.000			-47.083			-5.231
57904.000			-47.080			-5.231
58005.000			-47.079			-5.231
58103.000			-47.078			-5.231
58204.000			-47.077			-5.231
58305.000			-47.075			-5.231
58404.000			-47.074			-5.230
58504.000			-47.072			-5.230
58605.000			-47.070			-5.230
58704.000			-47.070			-5.230
58803.000			-47.068			-5.230
58905.000			-47.066			-5.230
59004.000			-47.065			-5.229
59104.000			-47.064			-5.229
59205.000			-47.063			-5.229
59304.000			-47.062			-5.229
59404.000			-47.060			-5.229
59504.000			-47.058			-5.229
59604.000			-47.057			-5.229
59704.000			-47.056			-5.228
59805.000			-47.055			-5.228
59904.000			-47.054			-5.228
60004.000			-47.051			-5.228
60105.000			-47.049			-5.228
60203.000			-47.049			-5.228
60304.000			-47.047			-5.227
60405.000			-47.044			-5.227
60504.000			-47.045			-5.227
60604.000			-47.044			-5.227
60704.000			-47.042			-5.227
60804.000			-47.039			-5.227
60904.000			-47.038			-5.226
61004.000			-47.037			-5.226
61104.000			-47.036			-5.226
61205.000			-47.035			-5.226
61304.000			-47.033			-5.226
61404.000			-47.032			-5.226
61505.000			-47.030			-5.226
61604.000			-47.028			-5.225
61704.000			-47.028			-5.225
61805.000			-47.026			-5.225
61904.000			-47.026			-5.225
62004.000			-47.025			-5.225
62104.000			-47.022			-5.225
62204.000			-47.020			-5.224
62304.000			-47.021			-5.225
62405.000			-47.020			-5.224
62504.000			-47.019			-5.224
62604.000			-47.018			-5.224
62705.000			-47.014			-5.224
62803.000			-47.012			-5.224
62904.000			-47.012			-5.224
63005.000			-47.011			-5.223
63104.000			-47.010			-5.223
63204.000			-47.008			-5.223
63305.000			-47.007			-5.223
63404.000			-47.005			-5.223
63503.000			-47.004			-5.223
63605.000			-47.003			-5.223
63704.000			-47.001			-5.222
63804.000			-47.002			-5.222
63905.000			-47.000			-5.222
64004.000			-46.998			-5.222
64105.000			-46.996			-5.222
64203.000			-46.995			-5.222
64304.000			-46.994			-5.222
64405.000			-46.991			-5.221
64504.000			-46.990			-5.221
64604.000			-46.989			-5.221
64705.000			-46.989			-5.221
64804.000			-46.986			-5.221
64903.000			-46.985			-5.221
65005.000			-46.984			-5.220
65104.000			-46.983			-5.220
65204.000			-46.982			-5.220
65305.000			-46.981			-5.220
65404.000			-46.980			-5.220
65504.000			-46.978			-5.220
65604.000			-46.977			-5.220
65704.000			-46.974			-5.219
65804.000			-46.973			-5.219
65905.000			-46.972			-5.219
66004.000			-46.971			-5.219
66104.000			-46.970			-5.219
66205.000			-46.969			-5.219
66303.000			-46.967			-5.219
66404.000			-46.965			-5.218
66505.000			-46.964			-5.218
66604.000			-46.965			-5.218
66704.000			-46.964			-5.218
66805.000			-46.962			-5.218
66904.000			-46.962			-5.218
67003.000			-46.959			-5.218
67105.000			-46.958			-5.218
67204.000			-46.957			-5.217
67305.000			-46.955			-5.217
67404.000			-46.953			-5.217
67504.000			-46.953			-5.217
67605.000			-46.952			-5.217
67704.000			-46.950			-5.217
67804.000			-46.948			-5.216
67904.000			-46.947			-5.216
68004.000			-46.947			-5.216
68104.000			-46.945			-5.216
68205.000			-46.943			-5.216
68304.000			-46.942			-5.216
68404.000			-46.942			-5.216
68505.000			-46.942			-5.216
68603.000			-46.941			-5.216
68704.000			-46.939			-5.215
68805.000			-46.936			-5.215
68904.000			-46.936			-5.215
69004.000			-46.935			-5.215
69105.000			-46.933			-5.215
69204.000			-46.932			-5.215
69303.000			-46.931			-5.215
69405.000			-46.931			-5.215
69504.000			-46.930			-5.214
69604.000			-46.928			-5.214
69705.000			-46.926			-5.214
69804.000			-46.924			-5.214
69904.000			-46.923			-5.214
70004.000			-46.922			-5.214
70104.000			-46.921			-5.213
70203.000			-46.920			-5.213
70305.000			-46.918			-5.213
70404.000			-46.918			-5.213
70505.000			-46.916			-5.213
70604.000			-46.914			-5.213
70704.000			-46.914			-5.213
70805.000			-46.914			-5.213
70903.000			-46.912			-5.212
71004.000			-46.912			-5.212
71105.000			-46.910			-5.212
71204.000			-46.908			-5.212
71304.000			-46.907			-5.212
71405.000			-46.906			-5.212
71504.000			-46.904			-5.212
71603.000			-46.903			-5.211
71705.000			-46.902			-5.211
71804.000			-46.901			-5.211
71904.000			-46.900			-5.211
72005.000			16.111			1.790
72181.000			-46.896			-5.211
72269.000			-46.895			-5.211
72356.000			-46.895			-5.211
72444.000			-46.895			-5.211
72532.000			-46.894			-5.210
72620.000			-46.892			-5.210
72707.000			-46.891			-5.210
72804.000			-46.890			-5.210
72905.000			-46.889			-5.210
73004.000			-46.888			-5.210
73104.000			-46.886			-5.210
73205.000			-46.885			-5.209
73304.000			-46.885			-5.209
73404.000			-46.883			-5.209
73505.000			-46.881			-5.209
73603.000			-46.879			-5.209
73705.000			-46.879			-5.209
73804.000			-46.878			-5.209
73904.000			-46.877			-5.209
74005.000			-46.875			-5.208
74104.000			-46.875			-5.208
74204.000			-46.875			-5.208
74304.000			-46.873			-5.208
74404.000			-46.872			-5.208
74504.000			-46.871			-5.208
74605.000			-46.869			-5.208
74704.000			-46.868			-5.208
74804.000			-46.867			-5.207
74905.000			-46.865			-5.207
75003.000			-46.865			-5.207
75104.000			-46.865			-5.207
75205.000			-46.863			-5.207
75304.000			-46.861			-5.207
75404.000			-46.860			-5.207
75505.000			-46.860			-5.207
75604.000			-46.859			-5.207
75703.000			-46.855			-5.206
75805.000			-46.854			-5.206
75904.000			-46.853			-5.206
76004.000			-46.852			-5.206
76105.000			-46.852			-5.206
76204.000			-46.851			-5.206
76304.000			-46.851			-5.206
76404.000			-46.850			-5.206
76504.000			-46.849			-5.205
76603.000			-46.848			-5.205
76705.000			-46.847			-5.205
76804.000			-46.845			-5.205
76905.000			-46.844			-5.205
77004.000			-46.843			-5.205
77104.000			-46.840			-5.204
77205.000			-46.840			-5.204
77303.000			-46.838			-5.204
77404.000			-46.837			-5.204
77505.000			-46.837			-5.204
77604.000			-46.837			-5.204
77704.000			-46.836			-5.204
77805.000			-46.832			-5.204
77904.000			-46.832			-5.204
78003.000			-46.832			-5.204
78105.000			-46.831			-5.203
78204.000			-46.830			-5.203
78304.000			-46.828			-5.203
78405.000			-46.827			-5.203
78504.000			-46.827			-5.203
78604.000			-46.824			-5.203
78704.000			-46.823			-5.203
78804.000			-46.822			-5.202
78904.000			-46.822			-5.202
79005.000			-46.821			-5.202
79104.000			-46.820			-5.202
79204.000			-46.819			-5.202
79305.000			-46.817			-5.202
79403.000			-46.817			-5.202
79504.000			-46.816			-5.202
79605.000			-46.814			-5.202
79704.000			-46.813			-5.201
79804.000			-46.812			-5.201
79904.000			-46.811			-5.201
80004.000			-46.809			-5.201
80105.000			-46.809			-5.201
80204.000			-46.807			-5.201
80303.000			-46.806			-5.201
80405.000			-46.806			-5.201
80504.000			-46.806			-5.201
80604.000			-46.804			-5.200
80705.000			-46.804			-5.200
80804.000			-46.802			-5.200
80904.000			-46.800			-5.200
81004.000			-46.798			-5.200
81104.000			-46.797			-5.200
81204.000			-46.797			-5.200
81305.000			-46.797			-5.200
81404.000			-46.796			-5.200
81504.000			-46.794			-5.199
81605.000			-46.794			-5.199
81703.000			-46.793			-5.199
81804.000			-46.791			-5.199
81904.000			-46.790			-5.199
82004.000			-46.789			-5.199
82104.000			-46.788			-5.199
82205.000			-46.788			-5.199
82304.000			-46.786			-5.198
82404.000			-46.785			-5.198
82505.000			-46.783			-5.198
82603.000			-46.783			-5.198
82704.000			-46.781			-5.198
82805.000			-46.780			-5.198
82904.000			-46.780			-5.198
83004.000			-46.780			-5.198
83104.000			-46.778			-5.198
83204.000			-46.776			-5.197
83304.000			-46.775			-5.197
83404.000			-46.774			-5.197
83504.000			-46.773			-5.197
83605.000			-46.771			-5.197
83704.000			-46.771			-5.197
83804.000			-46.771			-5.197
83905.000			-46.770			-5.197
84003.000			-46.768			-5.196
84104.000			-46.767			-5.196
84205.000			-46.767			-5.196
84304.000			-46.766			-5.196
84404.000			-46.764			-5.196
84505.000			-46.762			-5.196
84604.000			-46.762			-5.196
84703.000			-46.762			-5.196
84805.000			-46.760			-5.196
84904.000			-46.760			-5.196
85004.000			-46.759			-5.195
85105.000			-46.759			-5.195
85204.000			-46.758			-5.195
85304.000			-46.757			-5.195
85404.000			-46.755			-5.195
85504.000			-46.753			-5.195
85604.000			-46.753			-5.195
85705.000			-46.752			-5.195
85804.000			-46.751			-5.195
85904.000			-46.750			-5.194
86005.000			-46.748			-5.194
86103.000			-46.748			-5.194
86204.000			-46.748			-5.194
86305.000			-46.747			-5.194
86404.000			-46.745			-5.194
86505.000			-46.745			-5.194
86604.000			-46.743			-5.194
86704.000			-46.742			-5.194
86805.000			-46.741			-5.193
86904.000			-46.739			-5.193
87003.000			-46.738			-5.193
87105.000			-46.737			-5.193
87204.000			-46.737			-5.193
87304.000			-46.735			-5.193
87405.000			-46.734			-5.193
87504.000			-46.734			-5.193
87604.000			-46.734			-5.193
87704.000			-46.732			-5.192
87804.000			-46.731			-5.192
87904.000			-46.732			-5.192
88005.000			-46.730			-5.192
88104.000			-46.728			-5.192
88204.000			-46.728			-5.192
88305.000			-46.728			-5.192
88403.000			-46.727			-5.192
88504.000			-46.726			-5.192
88605.000			-46.725			-5.192
88704.000			-46.724			-5.192
88804.000			-46.722			-5.191
88905.000			-46.721			-5.191
89004.000			-46.721			-5.191
89103.000			-46.720			-5.191
89205.000			-46.720			-5.191
89303.000			-46.719			-5.191
89404.000			-46.717			-5.191
89505.000			-46.715			-5.191
89604.000			-46.714			-5.190
89705.000			-46.713			-5.190
89804.000			-46.712			-5.190
89904.000			-46.711			-5.190
90004.000			-46.710			-5.190
90104.000			-46.709			-5.190
90204.000			-46.708			-5.190
90305.000			-46.707			-5.190
90404.000			-46.706			-5.190
90504.000			-46.707			-5.190
90605.000			-46.707			-5.190
90703.000			-46.705			-5.189
90804.000			-46.704			-5.189
90905.000			-46.702			-5.189
91004.000			-46.702			-5.189
91104.000			-46.701			-5.189
91205.000			-46.699			-5.189
91304.000			-46.698			-5.189
91403.000			-46.697			-5.189
91505.000			-46.696			-5.188
91604.000			-46.695			-5.188
91704.000			-46.694			-5.188
91805.000			-46.694			-5.188
91904.000			-46.693			-5.188
92004.000			-46.692			-5.188
92104.000			-46.691			-5.188
92204.000			-46.690			-5.188
92304.000			-46.688			-5.188
92405.000			-46.688			-5.188
92504.000			-46.686			-5.187
92604.000			-46.685			-5.187
92705.000			-46.686			-5.187
92803.000			-46.684			-5.187
92905.000			-46.684			-5.187
93004.000			-46.683			-5.187
93104.000			-46.682			-5.187
93205.000			-46.681			-5.187
93304.000			-46.679			-5.187
93404.000			-46.678			-5.186
93504.000			-46.677			-5.186
93604.000			-46.678			-5.186
93703.000			-46.677			-5.186
93805.000			-46.676			-5.186
93904.000			-46.674			-5.186
94004.000			-46.673			-5.186
94105.000			-46.672			-5.186
94204.000			-46.671			-5.186
94304.000			-46.670			-5.186
94404.000			-46.671			-5.186
94504.000			-46.669			-5.185
94604.000			-46.669			-5.185
94705.000			-46.667			-5.185
94804.000			-46.666			-5.185
94904.000			-46.665			-5.185
95005.000			-46.663			-5.185
95103.000			-46.662			-5.185
95204.000			-46.662			-5.185
95305.000			-46.662			-5.185
95404.000			-46.661			-5.185
95504.000			-46.661			-5.185
95605.000			-46.660			-5.184
95704.000			-46.659			-5.184
95803.000			-46.657			-5.184
95905.000			-46.655			-5.184
96004.000			-46.654			-5.184
96105.000			-46.653			-5.184
96204.000			-46.652			-5.184
96304.000			-46.653			-5.184
96405.000			-46.652			-5.184
96503.000			-46.651			-5.183
96604.000			-46.649			-5.183
96705.000			-46.648			-5.183
96804.000			-46.648			-5.183
96904.000			-46.647			-5.183
97005.000			-46.647			-5.183
97104.000			-46.646			-5.183
97204.000			-46.645			-5.183
97305.000			-46.644			-5.183
97403.000			-46.642			-5.182
97504.000			-46.642			-5.182
97605.000			-46.642			-5.182
97704.000			-46.639			-5.182
97804.000			-46.637			-5.182
97905.000			-46.637			-5.182
98004.000			-46.637			-5.182
98103.000			-46.636			-5.182
98205.000			-46.635			-5.182
98304.000			-46.634			-5.182
98404.000			-46.633			-5.181
98505.000			-46.633			-5.181
98604.000			-46.633			-5.181
98704.000			-46.633			-5.181
98804.000			-46.630			-5.181
98904.000			-46.630			-5.181
99004.000			-46.628			-5.181
99104.000			-46.627			-5.181
99204.000			-46.626			-5.181
99305.000			-46.626			-5.181
99404.000			-46.627			-5.181
99504.000			-46.626			-5.181
99605.000			-46.624			-5.180
99703.000			-46.624			-5.180
99804.000			-46.623			-5.180
99905.000			-46.621			-5.180
100004.000			-46.620			-5.180
100104.000			-46.620			-5.180
100205.000			-46.618			-5.180
100304.000			-46.617			-5.180
100403.000			-46.617			-5.180
100505.000			-46.616			-5.180
100604.000			-46.615			-5.179
100704.000			-46.614			-5.179
100805.000			-46.613			-5.179
100904.000			-46.612			-5.179
101004.000			-46.610			-5.179
101104.000			-46.610			-5.179
101204.000			-46.610			-5.179
101304.000			-46.609			-5.179
101405.000			-46.608			-5.179
101504.000			-46.607			-5.179
101604.000			-46.607			-5.179
101705.000			-46.606			-5.178
101803.000			-46.605			-5.178
101904.000			-46.603			-5.178
102005.000			-46.603			-5.178
102104.000			-46.602			-5.178
102204.000			-46.602			-5.178
102304.000			-46.602			-5.178
102404.000			-46.599			-5.178
102504.000			-46.598			-5.178
102604.000			-46.598			-5.178
102704.000			-46.597			-5.177
102805.000			-46.596			-5.177
102904.000			-46.595			-5.177
103004.000			-46.595			-5.177
103105.000			-46.593			-5.177
103203.000			-46.592			-5.177
103304.000			-46.591			-5.177
103405.000			-46.591			-5.177
103504.000			-46.591			-5.177
103604.000			-46.589			-5.177
103705.000			-46.589			-5.177
103804.000			-46.589			-5.177
103903.000			-46.586			-5.176
104005.000			-46.586			-5.176
104103.000			-46.586			-5.176
104204.000			-46.585			-5.176
104305.000			-46.585			-5.176
104404.000			-46.584			-5.176
104504.000			-46.583			-5.176
104605.000			-46.582			-5.176
104704.000			-46.580			-5.176
104803.000			-46.579			-5.175
104905.000			-46.578			-5.175
105004.000			-46.577			-5.175
105104.000			-46.578			-5.175
105205.000			-46.578			-5.175
105304.000			-46.576			-5.175
105404.000			-46.575			-5.175
105503.000			-46.574			-5.175
105604.000			-46.574			-5.175
105705.000			-46.574			-5.175
105804.000			-46.573			-5.175
105904.000			-46.572			-5.175
106005.000			-46.569			-5.174
106104.000			-46.567			-5.174
106204.000			-46.567			-5.174
106305.000			-46.568			-5.174
106403.000			-46.568			-5.174
106504.000			-46.567			-5.174
106605.000			-46.566			-5.174
106704.000			-46.564			-5.174
106804.000			-46.564			-5.174
106905.000			-46.564			-5.174
107004.000			-46.562			-5.174
107103.000			-46.562			-5.174
107205.000			-46.562			-5.174
107304.000			-46.561			-5.173
107404.000			-46.561			-5.173
107505.000			-46.559			-5.173
107604.000			-46.557			-5.173
107704.000			-46.557			-5.173
107804.000			-46.557			-5.173
107904.000			-46.557			-5.173
108003.000			-46.556			-5.173
108105.000			-46.554			-5.173
108204.000			-46.553			-5.173
108304.000			-46.552			-5.172
108405.000			-46.551			-5.172
108504.000			-46.550			-5.172
108604.000			-46.550			-5.172
108703.000			-46.550			-5.172
108804.000			-46.548			-5.172
108905.000			-46.547			-5.172
109004.000			-46.545			-5.172
109104.000			-46.544			-5.172
109205.000			-46.544			-5.172
109304.000			-46.544			-5.172
109403.000			-46.543			-5.171
109505.000			-46.543			-5.171
109604.000			-46.542			-5.171
109704.000			-46.541			-5.171
109805.000			-46.539			-5.171
109904.000			-46.539			-5.171
110004.000			-46.538			-5.171
110104.000			-46.537			-5.171
110204.000			-46.537			-5.171
110304.000			-46.537			-5.171
110405.000			-46.536			-5.171
110504.000			-46.534			-5.170
110604.000			-46.534			-5.170
110705.000			-46.535			-5.171
110803.000			-46.533			-5.170
110904.000			-46.533			-5.170
111004.000			-46.532			-5.170
111104.000			-46.531			-5.170
111204.000			-46.530			-5.170
111305.000			-46.529			-5.170
111404.000			-46.527			-5.170
111504.000			-46.526			-5.170
111605.000			-46.526			-5.170
111703.000			-46.526			-5.170
111804.000			-46.525			-5.169
111905.000			-46.524			-5.169
112004.000			-46.523			-5.169
112105.000			-46.522			-5.169
112204.000			-46.521			-5.169
112304.000			-46.521			-5.169
112404.000			-46.520			-5.169
112504.000			-46.519			-5.169
112604.000			-46.517			-5.169
112705.000			-46.517			-5.169
112804.000			-46.518			-5.169
112904.000			-46.518			-5.169
113005.000			-46.517			-5.169
113103.000			-46.515			-5.168
113204.000			-46.514			-5.168
113305.000			-46.514			-5.168
113404.000			-46.513			-5.168
113504.000			-46.512			-5.168
113605.000			-46.511			-5.168
113704.000			-46.510			-5.168
113803.000			-46.509			-5.168
113905.000			-46.508			-5.168
114004.000			-46.508			-5.168
114104.000			-46.507			-5.167
114205.000			-46.507			-5.167
114304.000			-46.506			-5.167
114404.000			-46.506			-5.167
114504.000			-46.506			-5.167
114604.000			-46.504			-5.167
114704.000			-46.504			-5.167
114805.000			-46.503			-5.167
114904.000			-46.501			-5.167
115004.000			-46.499			-5.167
115105.000			-46.499			-5.167
115203.000			-46.499			-5.167
115305.000			-46.498			-5.166
115404.000			-46.497			-5.166
115504.000			-46.497			-5.166
115605.000			-46.496			-5.166
115704.000			-46.495			-5.166
115804.000			-46.494			-5.166
115905.000			-46.493			-5.166
116004.000			-46.492			-5.166
116103.000			-46.491			-5.166
116205.000			-46.490			-5.166
116304.000			-46.489			-5.165
116404.000			-46.488			-5.165
116505.000			-46.488			-5.165
116604.000			-46.488			-5.165
116704.000			-46.488			-5.165
116804.000			-46.487			-5.165
116904.000			-46.486			-5.165
117003.000			-46.486			-5.165
117105.000			-46.484			-5.165
117204.000			-46.485			-5.165
117304.000			-46.484			-5.165
117405.000			-46.482			-5.165
117504.000			-46.482			-5.165
117604.000			-46.479			-5.164
117704.000			-46.479			-5.164
117804.000			-46.481			-5.165
117904.000			-46.479			-5.164
118005.000			-46.477			-5.164
118104.000			-46.476			-5.164
118204.000			-46.476			-5.164
118305.000			-46.475			-5.164
118403.000			-46.475			-5.164
118505.000			-46.474			-5.164
118604.000			-46.474			-5.164
118704.000			-46.472			-5.164
118805.000			-46.471			-5.163
118904.000			-46.471			-5.163
119004.000			-46.470			-5.163
119105.000			-46.469			-5.163
119204.000			-46.469			-5.163
119303.000			-46.468			-5.163
119405.000			-46.468			-5.163
119504.000			-46.467			-5.163
119604.000			-46.467			-5.163
119705.000			-46.468			-5.163
119804.000			-46.466			-5.163
119904.000			-46.465			-5.163
120004.000			-46.465			-5.163
120104.000			-46.463			-5.163
120204.000			-46.463			-5.163
120305.000			-46.462			-5.162
120404.000			-46.460			-5.162
120504.000			-46.460			-5.162
120605.000			-46.459			-5.162
120703.000			-46.458			-5.162
120804.000			-46.458			-5.162
120905.000			-46.457			-5.162
121004.000			-46.457			-5.162
121104.000			-46.457			-5.162
121205.000			-46.455			-5.162
121304.000			-46.455			-5.162
121404.000			-46.454			-5.162
121505.000			-46.454			-5.162
121603.000			-46.452			-5.161
121705.000			-46.451			-5.161
121804.000			-46.450			-5.161
121904.000			-46.451			-5.161
122005.000			-46.450			-5.161
122104.000			-46.449			-5.161
122204.000			-46.448			-5.161
122304.000			-46.447			-5.161
122404.000			-46.446			-5.161
122504.000			-46.445			-5.161
122605.000			-46.446			-5.161
122704.000			-46.443			-5.160
122804.000			-46.442			-5.160
122905.000			-46.443			-5.160
123003.000			-46.443			-5.160
123104.000			-46.441			-5.160
123205.000			-46.440			-5.160
123304.000			-46.441			-5.160
123404.000			-46.440			-5.160
123505.000			-46.439			-5.160
123604.000			-46.438			-5.160
123703.000			-46.438			-5.160
123805.000			-46.437			-5.160
123904.000			-46.435			-5.159
124004.000			-46.436			-5.160
124105.000			-46.433			-5.159
124204.000			-46.433			-5.159
124304.000			-46.432			-5.159
124404.000			-46.431			-5.159
124504.000			-46.431			-5.159
124604.000			-46.430			-5.159
124704.000			-46.430			-5.159
124804.000			-46.429			-5.159
124905.000			-46.428			-5.159
125004.000			-46.427			-5.159
125104.000			-46.427			-5.159
125205.000			-46.426			-5.158
125303.000			-46.426			-5.158
125404.000			-46.425			-5.158
125505.000			-46.425			-5.158
125604.000			-46.424			-5.158
125704.000			-46.422			-5.158
125805.000			-46.422			-5.158
125904.000			-46.422			-5.158
126003.000			-46.421			-5.158
126105.000			-46.420			-5.158
126204.000			-46.420			-5.158
126304.000			-46.418			-5.158
126405.000			-46.419			-5.158
126504.000			-46.419			-5.158
126604.000			-46.418			-5.158
126704.000			-46.417			-5.157
126804.000			-46.416			-5.157
126904.000			-46.415			-5.157
127005.000			-46.415			-5.157
127104.000			-46.412			-5.157
127204.000			-46.412			-5.157
127305.000			-46.413			-5.157
127403.000			-46.412			-5.157
127504.000			-46.411			-5.157
127605.000			-46.411			-5.157
127704.000			-46.410			-5.157
127804.000			-46.409			-5.157
127904.000			-46.408			-5.156
128004.000			-46.407			-5.156
128105.000			-46.405			-5.156
128204.000			-46.405			-5.156
128303.000			-46.406			-5.156
128405.000			-46.406			-5.156
128504.000			-46.404			-5.156
128604.000			-46.403			-5.156
128705.000			-46.403			-5.156
128804.000			-46.402			-5.156
128904.000			-46.401			-5.156
129004.000			-46.401			-5.156
129104.000			-46.400			-5.156
129204.000			-46.399			-5.155
129305.000			-46.399			-5.155
129404.000			-46.397			-5.155
129504.000			-46.397			-5.155
129605.000			-46.396			-5.155
129703.000			-46.395			-5.155
129804.000			-46.394			-5.155
129904.000			-46.394			-5.155
130004.000			-46.395			-5.155
130104.000			-46.393			-5.155
130205.000			-46.392			-5.155
130304.000			-46.391			-5.155
130404.000			-46.391			-5.155
130505.000			-46.390			-5.154
130603.000			-46.389			-5.154
130704.000			-46.388			-5.154
130805.000			-46.388			-5.154
130904.000			-46.388			-5.154
131004.000			-46.387			-5.154
131104.000			-46.387			-5.154
131204.000			-46.386			-5.154
131304.000			-46.385			-5.154
131404.000			-46.385			-5.154
131504.000			-46.384			-5.154
131605.000			-46.385			-5.154
131704.000			-46.384			-5.154
131804.000			-46.382			-5.154
131905.000			-46.380			-5.153
132004.000			-46.380			-5.153
132104.000			-46.380			-5.153
132204.000			-46.379			-5.153
132304.000			-46.379			-5.153
132404.000			-46.379			-5.153
132505.000			-46.377			-5.153
132604.000			-46.376			-5.153
132704.000			-46.375			-5.153
132805.000			-46.375			-5.153
132904.000			-46.375			-5.153
133004.000			-46.374			-5.153
133104.000			-46.374			-5.153
133204.000			-46.373			-5.153
133304.000			-46.372			-5.152
133405.000			-46.371			-5.152
133504.000			-46.371			-5.152
133604.000			-46.370			-5.152
133705.000			-46.370			-5.152
133804.000			-46.369			-5.152
133904.000			-46.367			-5.152
134004.000			-46.367			-5.152
134104.000			-46.367			-5.152
134204.000			-46.366			-5.152
134304.000			-46.367			-5.152
134404.000			-46.365			-5.152
134505.000			-46.364			-5.152
134604.000			-46.363			-5.151
134704.000			-46.363			-5.151
134805.000			-46.363			-5.151
134903.000			-46.363			-5.151
135004.000			-46.360			-5.151
135105.000			-46.359			-5.151
135204.000			-46.360			-5.151
135304.000			-46.359			-5.151
135405.000			-46.358			-5.151
135504.000			-46.357			-5.151
135604.000			-46.356			-5.151
135705.000			-46.357			-5.151
135803.000			-46.356			-5.151
135904.000			-46.355			-5.151
136005.000			-46.354			-5.150
136104.000			-46.354			-5.150
136204.000			-46.354			-5.150
136305.000			-46.353			-5.150
136404.000			-46.352			-5.150
136504.000			-46.351			-5.150
136605.000			-46.350			-5.150
136703.000			-46.350			-5.150
136804.000			-46.350			-5.150
136905.000			-46.349			-5.150
137004.000			-46.348			-5.150
137104.000			-46.347			-5.150
137205.000			-46.346			-5.150
137304.000			-46.345			-5.149
137404.000			-46.345			-5.149
137505.000			-46.343			-5.149
137603.000			-46.343			-5.149
137705.000			-46.343			-5.149
137804.000			-46.342			-5.149
137904.000			-46.341			-5.149
138005.000			-46.340			-5.149
138104.000			-46.341			-5.149
138204.000			-46.340			-5.149
138305.000			-46.340			-5.149
138404.000			-46.340			-5.149
138503.000			-46.338			-5.149
138605.000			-46.337			-5.149
138704.000			-46.336			-5.148
138804.000			-46.336			-5.148
138905.000			-46.336			-5.148
139004.000			-46.335			-5.148
139104.000			-46.334			-5.148
139205.000			-46.334			-5.148
139304.000			-46.333			-5.148
139403.000			-46.332			-5.148
139505.000			-46.332			-5.148
139604.000			-46.332			-5.148
139704.000			-46.331			-5.148
139805.000			-46.329			-5.148
139904.000			-46.328			-5.148
140004.000			-46.328			-5.148
140105.000			-46.327			-5.147
140204.000			-46.327			-5.147
140303.000			-46.328			-5.148
140405.000			-46.326			-5.147
140504.000			-46.326			-5.147
140604.000			-46.326			-5.147
140705.000			-46.323			-5.147
140804.000			-46.323			-5.147
140905.000			-46.324			-5.147
141004.000			-46.323			-5.147
141104.000			-46.322			-5.147
141204.000			-46.320			-5.147
141304.000			-46.320			-5.147
141404.000			-46.319			-5.147
141505.000			-46.318			-5.146
141604.000			-46.319			-5.147
141704.000			-46.319			-5.147
141805.000			-46.318			-5.146
141903.000			-46.317			-5.146
142004.000			-46.316			-5.146
142104.000			-46.316			-5.146
142204.000			-46.314			-5.146
142304.000			-46.313			-5.146
142405.000			-46.314			-5.146
142504.000			-46.313			-5.146
142604.000			-46.313			-5.146
142705.000			-46.312			-5.146
142803.000			-46.312			-5.146
142904.000			-46.310			-5.146
143005.000			-46.309			-5.145
143104.000			-46.309			-5.145
143204.000			-46.309			-5.145
143305.000			-46.308			-5.145
143404.000			-46.308			-5.145
143504.000			-46.308			-5.145
143605.000			-46.307			-5.145
143703.000			-46.305			-5.145
143804.000			-46.305			-5.145
143905.000			-46.304			-5.145
144004.000			-46.305			-5.145
144105.000			-46.304			-5.145
144204.000			-46.303			-5.145
144304.000			-46.302			-5.145
144405.000			-46.302			-5.145
144504.000			-46.301			-5.145
144603.000			-46.299			-5.144
144705.000			-46.299			-5.144
144804.000			-46.299			-5.144
144904.000			-46.297			-5.144
145005.000			-46.297			-5.144
145104.000			-46.296			-5.144
145204.000			-46.296			-5.144
145305.000			-46.296			-5.144
145404.000			-46.295			-5.144
145503.000			-46.295			-5.144
145605.000			-46.295			-5.144
145704.000			-46.294			-5.144
145804.000			-46.293			-5.144
145905.000			-46.293			-5.144
146004.000			-46.292			-5.144
146104.000			-46.291			-5.143
146205.000			-46.290			-5.143
146304.000			-46.289			-5.143
146403.000			-46.290			-5.143
146505.000			-46.288			-5.143
146604.000			-46.288			-5.143
146704.000			-46.288			-5.143
146805.000			-46.288			-5.143
146904.000			-46.287			-5.143
147004.000			-46.286			-5.143
147104.000			-46.286			-5.143
147204.000			-46.284			-5.143
147304.000			-46.284			-5.143
147404.000			-46.283			-5.143
147503.000			-46.282			-5.142
147605.000			-46.282			-5.142
147704.000			-46.281			-5.142
147804.000			-46.281			-5.142
147905.000			-46.279			-5.142
148004.000			-46.279			-5.142
148104.000			-46.280			-5.142
148204.000			-46.279			-5.142
148304.000			-46.278			-5.142
148403.000			-46.277			-5.142
148505.000			-46.277			-5.142
148604.000			-46.276			-5.142
148704.000			-46.275			-5.142
148805.000			-46.276			-5.142
148904.000			-46.275			-5.142
149004.000			-46.274			-5.142
149105.000			-46.273			-5.141
149204.000			-46.272			-5.141
149303.000			-46.272			-5.141
149405.000			-46.271			-5.141
149504.000			-46.272			-5.141
149604.000			-46.271			-5.141
149705.000			-46.269			-5.141
149804.000			-46.269			-5.141
149904.000			-46.269			-5.141
150005.000			-46.269			-5.141
150104.000			-46.267			-5.141
150203.000			-46.266			-5.141
150305.000			-46.266			-5.141
150404.000			-46.265			-5.141
150505.000			-46.265			-5.141
150604.000			-46.264			-5.140
150704.000			-46.263			-5.140
150805.000			-46.264			-5.140
150904.000			-46.262			-5.140
151004.000			-46.261			-5.140
151104.000			-46.261			-5.140
151204.000			-46.260			-5.140
151304.000			-46.259			-5.140
151405.000			-46.260			-5.140
151504.000			-46.261			-5.140
151604.000			-46.258			-5.140
151705.000			-46.258			-5.140
151804.000			-46.258			-5.140
151904.000			-46.257			-5.140
152004.000			-46.256			-5.140
152104.000			-46.255			-5.139
152204.000			-46.256			-5.140
152305.000			-46.255			-5.139
152404.000			-46.255			-5.139
152504.000			-46.254			-5.139
152605.000			-46.254			-5.139
152704.000			-46.253			-5.139
152804.000			-46.251			-5.139
152904.000			-46.252			-5.139
153004.000			-46.250			-5.139
153104.000			-46.250			-5.139
153205.000			-46.250			-5.139
153304.000			-46.250			-5.139
153404.000			-46.250			-5.139
153505.000			-46.249			-5.139
153603.000			-46.248			-5.139
153705.000			-46.246			-5.138
153803.000			-46.245			-5.138
153904.000			-46.244			-5.138
154005.000			-46.244			-5.138
154104.000			-46.243			-5.138
154204.000			-46.243			-5.138
154305.000			-46.243			-5.138
154404.000			-46.243			-5.138
154503.000			-46.241			-5.138
154605.000			-46.241			-5.138
154704.000			-46.241			-5.138
154804.000			-46.241			-5.138
154905.000			-46.241			-5.138
155004.000			-46.240			-5.138
155104.000			-46.238			-5.138
155205.000			-46.237			-5.137
155304.000			-46.237			-5.137
155403.000			-46.236			-5.137
155505.000			-46.235			-5.137
155604.000			-46.235			-5.137
155704.000			-46.236			-5.137
155805.000			-46.235			-5.137
155904.000			-46.231			-5.137
156004.000			-46.232			-5.137
156105.000			-46.234			-5.137
156204.000			-46.233			-5.137
156303.000			-46.232			-5.137
156405.000			-46.231			-5.137
156504.000			-46.231			-5.137
156604.000			-46.230			-5.137
156705.000			-46.229			-5.137
156804.000			-46.229			-5.137
156905.000			-46.229			-5.137
157004.000			-46.228			-5.136
157104.000			-46.228			-5.136
157204.000			-46.228			-5.136
157304.000			-46.226			-5.136
157404.000			-46.226			-5.136
157505.000			-46.225			-5.136
157604.000			-46.225			-5.136
157704.000			-46.225			-5.136
157805.000			-46.224			-5.136
157904.000			-46.223			-5.136
158004.000			-46.222			-5.136
158104.000			-46.221			-5.136
158204.000			-46.222			-5.136
158304.000			-46.220			-5.136
158405.000			-46.220			-5.136
158504.000			-46.219			-5.135
158604.000			-46.218			-5.135
158705.000			-46.218			-5.135
158804.000			-46.217			-5.135
158904.000			-46.218			-5.135
159004.000			-46.217			-5.135
159104.000			-46.217			-5.135
159204.000			-46.217			-5.135
159305.000			-46.216			-5.135
159404.000			-46.216			-5.135
159504.000			-46.214			-5.135
159605.000			-46.213			-5.135
159704.000			-46.213			-5.135
159804.000			-46.213			-5.135
159903.000			-46.213			-5.135
160004.000			-46.211			-5.135
160105.000			-46.210			-5.134
160204.000			-46.210			-5.134
160304.000			-46.210			-5.134
160405.000			-46.209			-5.134
160504.000			-46.209			-5.134
160604.000			-46.209			-5.134
160705.000			-46.208			-5.134
160803.000			-46.207			-5.134
160904.000			-46.205			-5.134
161005.000			-46.205			-5.134
161104.000			-46.205			-5.134
161204.000			-46.204			-5.134
161305.000			-46.204			-5.134
161404.000			-46.204			-5.134
161503.000			-46.204			-5.134
161605.000			-46.203			-5.134
161703.000			-46.203			-5.134
161804.000			-46.201			-5.133
161905.000			-46.200			-5.133
162004.000			-46.200			-5.133
162104.000			-46.201			-5.133
162205.000			-46.201			-5.133
162304.000			-46.199			-5.133
162403.000			-46.197			-5.133
162505.000			-46.197			-5.133
162604.000			-46.196			-5.133
162704.000			-46.197			-5.133
162805.000			-46.195			-5.133
162904.000			-46.196			-5.133
163004.000			-46.196			-5.133
163104.000			-46.195			-5.133
163204.000			-46.195			-5.133
163304.000			-46.194			-5.133
163404.000			-46.194			-5.133
163503.000			-46.193			-5.133
163605.000			-46.192			-5.132
163704.000			-46.191			-5.132
163804.000			-46.190			-5.132
163905.000			-46.190			-5.132
164004.000			-46.190			-5.132
164104.000			-46.189			-5.132
164204.000			-46.188			-5.132
164304.000			-46.188			-5.132
164403.000			-46.187			-5.132
164505.000			-46.186			-5.132
164604.000			-46.186			-5.132
164704.000			-46.185			-5.132
164805.000			-46.185			-5.132
164904.000			-46.184			-5.132
165004.000			-46.184			-5.132
165104.000			-46.185			-5.132
165204.000			-46.184			-5.132
165303.000			-46.182			-5.131
165405.000			-46.181			-5.131
165504.000			-46.181			-5.131
165604.000			-46.180			-5.131
165705.000			-46.179			-5.131
165804.000			-46.180			-5.131
165904.000			-46.181			-5.131
166004.000			-46.180			-5.131
166104.000			-46.178			-5.131
166203.000			-46.178			-5.131
166305.000			-46.178			-5.131
166404.000			-46.177			-5.131
166505.000			-46.176			-5.131
166604.000			-46.176			-5.131
166704.000			-46.176			-5.131
166805.000			-46.175			-5.131
166904.000			-46.174			-5.130
167004.000			-46.174			-5.130
167104.000			-46.174			-5.130
167204.000			-46.173			-5.130
167304.000			-46.173			-5.130
167405.000			-46.171			-5.130
167504.000			-46.171			-5.130
167604.000			-46.170			-5.130
167705.000			-46.170			-5.130
167804.000			-46.170			-5.130
167904.000			-46.170			-5.130
168004.000			-46.169			-5.130
168104.000			-46.168			-5.130
168204.000			-46.168			-5.130
168305.000			-46.167			-5.130
168404.000			-46.166			-5.130
168504.000			-46.166			-5.130
168605.000			-46.165			-5.129
168704.000			-46.165			-5.129
168804.000			-46.165			-5.129
168904.000			-46.163			-5.129
169004.000			-46.163			-5.129
169104.000			-46.163			-5.129
169205.000			-46.162			-5.129
169304.000			-46.161			-5.129
169404.000			-46.161			-5.129
169505.000			-46.160			-5.129
169604.000			-46.159			-5.129
169705.000			-46.159			-5.129
169803.000			-46.160			-5.129
169904.000			-46.159			-5.129
170004.000			-46.158			-5.129
170104.000			-46.156			-5.128
170204.000			-46.155			-5.128
170305.000			-46.157			-5.129
170404.000			-46.155			-5.128
170504.000			-46.155			-5.128
170605.000			-46.155			-5.128
170703.000			-46.154			-5.128
170804.000			-46.153			-5.128
170904.000			-46.152			-5.128
171004.000			-46.152			-5.128
171104.000			-46.153			-5.128
171205.000			-46.153			-5.128
171304.000			-46.152			-5.128
171404.000			-46.150			-5.128
171505.000			-46.151			-5.128
171603.000			-46.151			-5.128
171704.000			-46.151			-5.128
171805.000			-46.150			-5.128
171904.000			-46.149			-5.128
172004.000			-46.148			-5.128
172105.000			-46.147			-5.127
172204.000			-46.147			-5.127
172304.000			-46.147			-5.127
172405.000			-46.147			-5.127
172503.000			-46.146			-5.127
172604.000			-46.145			-5.127
172705.000			-46.144			-5.127
172804.000			-46.144			-5.127
172905.000			-46.144			-5.127
173004.000			-46.143			-5.127
173104.000			-46.142			-5.127
173205.000			-46.141			-5.127
173304.000			-46.140			-5.127
173403.000			-46.139			-5.127
173505.000			-46.139			-5.127
173604.000			-46.139			-5.127
173704.000			-46.138			-5.126
173805.000			-46.138			-5.126
173904.000			-46.137			-5.126
174004.000			-46.137			-5.126
174105.000			-46.136			-5.126
174204.000			-46.136			-5.126
174303.000			-46.136			-5.126
174405.000			-46.135			-5.126
174504.000			-46.133			-5.126
174604.000			-46.133			-5.126
174705.000			-46.133			-5.126
174804.000			-46.133			-5.126
174904.000			-46.133			-5.126
175005.000			-46.133			-5.126
175104.000			-46.132			-5.126
175203.000			-46.131			-5.126
175305.000			-46.131			-5.126
175404.000			-46.130			-5.126
175504.000			-46.129			-5.125
175605.000			-46.128			-5.125
175704.000			-46.128			-5.125
175804.000			-46.128			-5.125
175904.000			-46.127			-5.125
176004.000			-46.128			-5.125
176104.000			-46.127			-5.125
176204.000			-46.125			-5.125
176304.000			-46.124			-5.125
176405.000			-46.124			-5.125
176504.000			-46.124			-5.125
176604.000			-46.123			-5.125
176705.000			-46.123			-5.125
176804.000			-46.121			-5.125
176904.000			-46.121			-5.125
177004.000			-46.122			-5.125
177104.000			-46.121			-5.125
177204.000			-46.121			-5.125
177305.000			-46.121			-5.125
177404.000			-46.121			-5.125
177504.000			-46.120			-5.124
177605.000			-46.118			-5.124
177704.000			-46.118			-5.124
177804.000			-46.118			-5.124
177904.000			-46.117			-5.124
178004.000			-46.116			-5.124
178104.000			-46.115			-5.124
178205.000			-46.115			-5.124
178304.000			-46.114			-5.124
178404.000			-46.113			-5.124
178505.000			-46.114			-5.124
178604.000			-46.113			-5.124
178704.000			-46.113			-5.124
178804.000			-46.113			-5.124
178904.000			-46.111			-5.123
179004.000			-46.110			-5.123
179104.000			-46.111			-5.123
179204.000			-46.111			-5.123
179305.000			-46.108			-5.123
179404.000			-46.108			-5.123
179504.000			-46.109			-5.123
179605.000			-46.109			-5.123
179703.000			-46.107			-5.123
179804.000			-46.108			-5.123
179905.000			-46.106			-5.123
180004.000			-46.105			-5.123
180104.000			-46.105			-5.123
180205.000			-46.105			-5.123
180304.000			-46.104			-5.123
180404.000			-46.104			-5.123
180505.000			-46.103			-5.123
180603.000			-46.103			-5.123
180704.000			-46.102			-5.122
180805.000			-46.102			-5.122
180904.000			-46.102			-5.122
181004.000			-46.101			-5.122
181105.000			-46.101			-5.122
181204.000			-46.100			-5.122
181303.000			-46.100			-5.122
181405.000			-46.099			-5.122
181503.000			-46.098			-5.122
181604.000			-46.099			-5.122
181705.000			-46.098			-5.122
181804.000			-46.097			-5.122
181904.000			-46.097			-5.122
182005.000			-46.096			-5.122
182104.000			-46.095			-5.122
182204.000			-46.094			-5.122
182305.000			-46.094			-5.122
182403.000			-46.095			-5.122
182505.000			-46.094			-5.122
182604.000			-46.093			-5.121
182704.000			-46.092			-5.121
182805.000			-46.092			-5.121
182904.000			-46.092			-5.121
183004.000			-46.093			-5.121
183104.000			-46.093			-5.121
183204.000			-46.091			-5.121
183303.000			-46.090			-5.121
183405.000			-46.090			-5.121
183504.000			-46.090			-5.121
183604.000			-46.088			-5.121
183705.000			-46.089			-5.121
183804.000			-46.088			-5.121
183904.000			-46.086			-5.121
184005.000			-46.085			-5.121
184104.000			-46.085			-5.121
184203.000			-46.085			-5.121
184305.000			-46.084			-5.120
184404.000			-46.084			-5.120
184504.000			-46.084			-5.120
184605.000			-46.084			-5.120
184704.000			-46.084			-5.120
184804.000			-46.084			-5.120
184905.000			-46.083			-5.120
185004.000			-46.082			-5.120
185103.000			-46.081			-5.120
185205.000			-46.082			-5.120
185304.000			-46.082			-5.120
185404.000			-46.081			-5.120
185505.000			-46.078			-5.120
185604.000			-46.079			-5.120
185705.000			-46.079			-5.120
185804.000			-46.078			-5.120
185904.000			-46.079			-5.120
186004.000			-46.078			-5.120
186104.000			-46.076			-5.120
186204.000			-46.075			-5.119
186305.000			-46.076			-5.120
186404.000			-46.076			-5.120
186504.000			-46.075			-5.119
186605.000			-46.074			-5.119
186704.000			-46.073			-5.119
186804.000			-46.072			-5.119
186904.000			-46.071			-5.119
187004.000			-46.072			-5.119
187103.000			-46.072			-5.119
187205.000			-46.069			-5.119
187304.000			-46.069			-5.119
187404.000			-46.070			-5.119
187505.000			-46.069			-5.119
187604.000			-46.070			-5.119
187704.000			-46.068			-5.119
187804.000			-46.068			-5.119
187904.000			-46.068			-5.119
188003.000			-46.068			-5.119
188105.000			-46.067			-5.119
188204.000			-46.066			-5.118
188304.000			-46.065			-5.118
188405.000			-46.065			-5.118
188504.000			-46.064			-5.118
188604.000			-46.064			-5.118
188704.000			-46.063			-5.118
188804.000			-46.063			-5.118
188904.000			-46.062			-5.118
189004.000			-46.062			-5.118
189104.000			-46.062			-5.118
189205.000			-46.061			-5.118
189304.000			-46.060			-5.118
189404.000			-46.061			-5.118
189505.000			-46.061			-5.118
189604.000			-46.061			-5.118
189704.000			-46.060			-5.118
189804.000			-46.059			-5.118
189904.000			-46.059			-5.118
190004.000			-46.057			-5.117
190105.000			-46.057			-5.117
190204.000			-46.057			-5.117
190304.000			-46.057			-5.117
190405.000			-46.056			-5.117
190504.000			-46.055			-5.117
190604.000			-46.056			-5.117
190704.000			-46.055			-5.117
190804.000			-46.053			-5.117
190904.000			-46.053			-5.117
191005.000			-46.053			-5.117
191104.000			-46.053			-5.117
191204.000			-46.053			-5.117
191305.000			-46.052			-5.117
191404.000			-46.052			-5.117
191504.000			-46.051			-5.117
191604.000			-46.050			-5.117
191704.000			-46.051			-5.117
191804.000			-46.051			-5.117
191904.000			-46.050			-5.117
192004.000			-46.048			-5.116
192105.000			-46.048			-5.116
192204.000			-46.048			-5.116
192303.000			-46.048			-5.116
192405.000			-46.047			-5.116
192503.000			-46.047			-5.116
192604.000			-46.047			-5.116
192705.000			-46.045			-5.116
192804.000			-46.044			-5.116
192904.000			-46.043			-5.116
193005.000			-46.045			-5.116
193104.000			-46.044			-5.116
193203.000			-46.044			-5.116
193305.000			-46.042			-5.116
193403.000			-46.043			-5.116
193504.000			-46.042			-5.116
193605.000			-46.042			-5.116
193704.000			-46.042			-5.116
193804.000			-46.042			-5.116
193905.000			-46.041			-5.116
194004.000			-46.039			-5.115
194103.000			-46.038			-5.115
194205.000			-46.039			-5.115
194303.000			-46.037			-5.115
194404.000			-46.037			-5.115
194505.000			-46.036			-5.115
194604.000			-46.037			-5.115
194704.000			-46.037			-5.115
194805.000			-46.036			-5.115
194904.000			-46.035			-5.115
195003.000			-46.034			-5.115
195105.000			-46.033			-5.115
195203.000			-46.033			-5.115
195305.000			-46.034			-5.115
195404.000			-46.033			-5.115
195504.000			-46.033			-5.115
195605.000			-46.032			-5.115
195704.000			-46.032			-5.115
195804.000			-46.032			-5.115
195904.000			-46.032			-5.115
196004.000			-46.030			-5.114
196103.000			-46.030			-5.114
196205.000			-46.029			-5.114
196304.000			-46.027			-5.114
196404.000			-46.027			-5.114
196505.000			-46.027			-5.114
196604.000			-46.026			-5.114
196704.000			-46.026			-5.114
196804.000			-46.027			-5.114
196904.000			-46.027			-5.114
197003.000			-46.027			-5.114
197105.000			-46.025			-5.114
197204.000			-46.024			-5.114
197304.000			-46.024			-5.114
197405.000			-46.024			-5.114
197504.000			-46.023			-5.114
197604.000			-46.022			-5.114
197704.000			-46.023			-5.114
197804.000			-46.023			-5.114
197903.000			-46.022			-5.114
198005.000			-46.022			-5.114
198104.000			-46.021			-5.113
198204.000			-46.020			-5.113
198305.000			-46.020			-5.113
198404.000			-46.018			-5.113
198505.000			-46.018			-5.113
198604.000			-46.018			-5.113
198704.000			-46.017			-5.113
198804.000			-46.018			-5.113
198904.000			-46.018			-5.113
199004.000			-46.017			-5.113
199105.000			-46.016			-5.113
199204.000			-46.014			-5.113
199304.000			-46.015			-5.113
199405.000			-46.014			-5.113
199504.000			-46.014			-5.113
199604.000			-46.014			-5.113
199704.000			-46.013			-5.113
199804.000			-46.012			-5.112
199904.000			-46.013			-5.113
200005.000			-46.012			-5.112
200104.000			-46.012			-5.112
200204.000			-46.011			-5.112
200305.000			-46.011			-5.112
200404.000			-46.011			-5.112
200504.000			-46.010			-5.112
200604.000			-46.009			-5.112
200704.000			-46.009			-5.112
200804.000			-46.008			-5.112
200905.000			-46.007			-5.112
201004.000			-46.007			-5.112
201104.000			-46.006			-5.112
201205.000			-46.005			-5.112
201303.000			-46.006			-5.112
201404.000			-46.005			-5.112
201505.000			-46.005			-5.112
201604.000			-46.004			-5.112
201705.000			-46.004			-5.112
201804.000			-46.003			-5.111
201904.000			-46.003			-5.111
202005.000			-46.004			-5.112
202104.000			-46.003			-5.111
202203.000			-46.002			-5.111
202305.000			-46.001			-5.111
202404.000			-46.000			-5.111
202504.000			-46.000			-5.111
202605.000			-45.999			-5.111
202704.000			-45.998			-5.111
202804.000			-45.997			-5.111
202904.000			-45.998			-5.111
203004.000			-45.998			-5.111
203103.000			-45.998			-5.111
203205.000			-45.997			-5.111
203304.000			-45.997			-5.111
203404.000			-45.997			-5.111
203505.000			-45.996			-5.111
203604.000			-45.996			-5.111
203704.000			-45.996			-5.111
203805.000			-45.994			-5.110
203904.000			-45.994			-5.110
204003.000			-45.995			-5.111
204105.000			-45.994			-5.110
204204.000			-45.993			-5.110
204304.000			-45.993			-5.110
204405.000			-45.993			-5.110
204504.000			-45.993			-5.110
204604.000			-45.993			-5.110
204704.000			-45.992			-5.110
204804.000			-45.991			-5.110
204904.000			-45.990			-5.110
205004.000			-45.990			-5.110
205103.000			-45.990			-5.110
205205.000			-45.990			-5.110
205304.000			-45.989			-5.110
205404.000			-45.988			-5.110
205505.000			-45.987			-5.110
205604.000			-45.987			-5.110
205704.000			-45.985			-5.109
205804.000			-45.986			-5.110
205904.000			-45.986			-5.110
206003.000			-45.985			-5.109
206105.000			-45.985			-5.109
206204.000			-45.984			-5.109
206304.000			-45.983			-5.109
206405.000			-45.981			-5.109
206504.000			-45.981			-5.109
206604.000			-45.982			-5.109
206705.000			-45.982			-5.109
206804.000			-45.980			-5.109
206903.000			-45.979			-5.109
207005.000			-45.979			-5.109
207104.000			-45.979			-5.109
207204.000			-45.979			-5.109
207305.000			-45.980			-5.109
207404.000			-45.979			-5.109
207504.000			-45.978			-5.109
207605.000			-45.978			-5.109
207704.000			-45.979			-5.109
207803.000			-45.977			-5.109
207905.000			-45.977			-5.109
208004.000			-45.976			-5.108
208105.000			-45.975			-5.108
208204.000			-45.975			-5.108
208304.000			-45.975			-5.108
208405.000			-45.976			-5.108
208504.000			-45.977			-5.109
208604.000			-45.974			-5.108
208704.000			-45.972			-5.108
208804.000			-45.972			-5.108
208903.000			-45.972			-5.108
209005.000			-45.971			-5.108
209104.000			-45.971			-5.108
209204.000			-45.970			-5.108
209305.000			-45.971			-5.108
209404.000			-45.970			-5.108
209504.000			-45.969			-5.108
209604.000			-45.970			-5.108
209704.000			-45.969			-5.108
209803.000			-45.968			-5.108
209905.000			-45.968			-5.108
210004.000			-45.968			-5.108
210104.000			-45.967			-5.107
210205.000			-45.967			-5.107
210304.000			-45.966			-5.107
210404.000			-45.967			-5.107
210505.000			-45.966			-5.107
210604.000			-45.965			-5.107
210703.000			-45.964			-5.107
210805.000			-45.963			-5.107
210904.000			-45.963			-5.107
211004.000			-45.963			-5.107
211105.000			-45.962			-5.107
211204.000			-45.963			-5.107
211305.000			-45.962			-5.107
211404.000			-45.962			-5.107
211504.000			-45.960			-5.107
211604.000			-45.961			-5.107
211704.000			-45.961			-5.107
211804.000			-45.959			-5.107
211905.000			-45.959			-5.107
212004.000			-45.959			-5.107
212104.000			-45.959			-5.107
212205.000			-45.958			-5.106
212304.000			-45.958			-5.106
212404.000			-45.957			-5.106
212504.000			-45.957			-5.106
212604.000			-45.956			-5.106
212704.000			-45.955			-5.106
212805.000			-45.955			-5.106
212904.000			-45.953			-5.106
213004.000			-45.955			-5.106
213105.000			-45.955			-5.106
213203.000			-45.955			-5.106
213304.000			-45.954			-5.106
213404.000			-45.952			-5.106
213504.000			-45.952			-5.106
213604.000			-45.953			-5.106
213705.000			-45.953			-5.106
213804.000			-45.952			-5.106
213904.000			-45.951			-5.106
214005.000			-45.951			-5.106
214103.000			-45.949			-5.105
214204.000			-45.950			-5.106
214303.000			-45.950			-5.106
214404.000			-45.950			-5.106
214505.000			-45.949			-5.105
214604.000			-45.948			-5.105
214704.000			-45.947			-5.105
214805.000			-45.946			-5.105
214904.000			-45.946			-5.105
215004.000			-45.947			-5.105
215105.000			-45.946			-5.105
215203.000			-45.946			-5.105
215304.000			-45.946			-5.105
215405.000			-45.945			-5.105
215504.000			-45.946			-5.105
215604.000			-45.945			-5.105
215705.000			-45.944			-5.105
215804.000			-45.944			-5.105
215904.000			-45.943			-5.105
216005.000			-45.941			-5.105
216103.000			-45.940			-5.104
216204.000			-45.941			-5.105
216305.000			-45.940			-5.104
216404.000			-45.938			-5.104
216504.000			-45.938			-5.104
216605.000			-45.938			-5.104
216704.000			-45.938			-5.104
216804.000			-45.938			-5.104
216905.000			-45.938			-5.104
217003.000			-45.937			-5.104
217104.000			-45.937			-5.104
217205.000			-45.936			-5.104
217304.000			-45.936			-5.104
217404.000			-45.935			-5.104
217504.000			-45.935			-5.104
217604.000			-45.934			-5.104
217705.000			-45.934			-5.104
217804.000			-45.935			-5.104
217903.000			-45.935			-5.104
218005.000			-45.934			-5.104
218104.000			-45.934			-5.104
218204.000			-45.934			-5.104
218305.000			-45.931			-5.103
218404.000			-45.930			-5.103
218504.000			-45.931			-5.103
218605.000			-45.931			-5.103
218704.000			-45.932			-5.104
218803.000			-45.931			-5.103
218905.000			-45.930			-5.103
219004.000			-45.930			-5.103
219104.000			-45.929			-5.103
219205.000			-45.930			-5.103
219304.000			-45.930			-5.103
219404.000			-45.928			-5.103
219505.000			-45.928			-5.103
219604.000			-45.927			-5.103
219703.000			-45.926			-5.103
219805.000			-45.926			-5.103
219904.000			-45.926			-5.103
220004.000			-45.926			-5.103
220105.000			-45.926			-5.103
220204.000			-45.924			-5.103
220304.000			-45.926			-5.103
220405.000			-45.925			-5.103
220504.000			-45.923			-5.103
220603.000			-45.922			-5.102
220705.000			-45.922			-5.102
220804.000			-45.921			-5.102
220905.000			-45.922			-5.102
221004.000			-45.921			-5.102
221104.000			-45.919			-5.102
221205.000			-45.920			-5.102
221304.000			-45.919			-5.102
221404.000			-45.919			-5.102
221504.000			-45.918			-5.102
221604.000			-45.919			-5.102
221704.000			-45.919			-5.102
221805.000			-45.918			-5.102
221904.000			-45.916			-5.102
222004.000			-45.915			-5.102
222105.000			-45.916			-5.102
222204.000			-45.915			-5.102
222304.000			-45.916			-5.102
222404.000			-45.916			-5.102
222504.000			-45.916			-5.102
222604.000			-45.915			-5.102
222705.000			-45.914			-5.102
222804.000			-45.914			-5.102
222904.000			-45.914			-5.102
223005.000			-45.913			-5.101
223104.000			-45.913			-5.101
223204.000			-45.912			-5.101
223304.000			-45.911			-5.101
223404.000			-45.911			-5.101
223504.000			-45.912			-5.101
223605.000			-45.912			-5.101
223704.000			-45.911			-5.101
223804.000			-45.910			-5.101
223905.000			-45.909			-5.101
224003.000			-45.909			-5.101
224105.000			-45.908			-5.101
224203.000			-45.907			-5.101
224304.000			-45.907			-5.101
224405.000			-45.907			-5.101
224504.000			-45.906			-5.101
224604.000			-45.906			-5.101
224705.000			-45.905			-5.101
224804.000			-45.905			-5.101
224903.000			-45.905			-5.101
225005.000			-45.905			-5.101
225103.000			-45.904			-5.100
225204.000			-45.903			-5.100
225305.000			-45.902			-5.100
225404.000			-45.902			-5.100
225504.000			-45.903			-5.100
225605.000			-45.903			-5.100
225704.000			-45.903			-5.100
225803.000			-45.902			-5.100
225905.000			-45.901			-5.100
226003.000			-45.901			-5.100
226104.000			-45.900			-5.100
226205.000			-45.900			-5.100
226304.000			-45.898			-5.100
226404.000			-45.898			-5.100
226505.000			-45.898			-5.100
226604.000			-45.899			-5.100
226704.000			-45.897			-5.100
226805.000			-45.898			-5.100
226903.000			-45.897			-5.100
227004.000			-45.897			-5.100
227103.000			-45.896			-5.100
227204.000			-45.896			-5.100
227305.000			-45.895			-5.099
227404.000			-45.893			-5.099
227504.000			-45.894			-5.099
227605.000			-45.893			-5.099
227704.000			-45.893			-5.099
227804.000			-45.894			-5.099
227905.000			-45.893			-5.099
228003.000			-45.893			-5.099
228104.000			-45.893			-5.099
228205.000			-45.892			-5.099
228304.000			-45.891			-5.099
228404.000			-45.891			-5.099
228505.000			-45.890			-5.099
228604.000			-45.891			-5.099
228704.000			-45.889			-5.099
228805.000			-45.889			-5.099
228903.000			-45.889			-5.099
229004.000			-45.889			-5.099
229105.000			-45.887			-5.099
229204.000			-45.888			-5.099
229304.000			-45.887			-5.099
229405.000			-45.886			-5.098
229504.000			-45.887			-5.099
229604.000			-45.886			-5.098
229705.000			-45.886			-5.098
229803.000			-45.885			-5.098
229904.000			-45.884			-5.098
230004.000			-45.884			-5.098
230104.000			-45.883			-5.098
230204.000			-45.884			-5.098
230304.000			-45.884			-5.098
230404.000			-45.883			-5.098
230505.000			-45.883			-5.098
230604.000			-45.882			-5.098
230704.000			-45.881			-5.098
230805.000			-45.882			-5.098
230903.000			-45.883			-5.098
231004.000			-45.881			-5.098
231105.000			-45.881			-5.098
231204.000			-45.880			-5.098
231304.000			-45.880			-5.098
231405.000			-45.879			-5.098
231504.000			-45.878			-5.098
231604.000			-45.879			-5.098
231705.000			-45.878			-5.098
231803.000			-45.878			-5.098
231904.000			-45.876			-5.097
232005.000			-45.876			-5.097
232104.000			-45.877			-5.097
232204.000			-45.877			-5.097
232305.000			-45.876			-5.097
232404.000			-45.875			-5.097
232504.000			-45.875			-5.097
232605.000			-45.875			-5.097
232703.000			-45.875			-5.097
232804.000			-45.875			-5.097
232905.000			-45.873			-5.097
233004.000			-45.873			-5.097
233104.000			-45.873			-5.097
233205.000			-45.872			-5.097
233304.000			-45.871			-5.097
233404.000			-45.872			-5.097
233505.000			-45.872			-5.097
233603.000			-45.871			-5.097
233705.000			-45.871			-5.097
233804.000			-45.872			-5.097
233904.000			-45.871			-5.097
234005.000			-45.870			-5.097
234104.000			-45.869			-5.097
234204.000			-45.868			-5.096
234305.000			-45.869			-5.097
234404.000			-45.869			-5.097
234503.000			-45.868			-5.096
234605.000			-45.866			-5.096
234704.000			-45.867			-5.096
234804.000			-45.867			-5.096
234905.000			-45.866			-5.096
235004.000			-45.866			-5.096
235104.000			-45.866			-5.096
235205.000			-45.866			-5.096
235304.000			-45.864			-5.096
235403.000			-45.864			-5.096
235505.000			-45.863			-5.096
235603.000			-45.862			-5.096
235704.000			-45.863			-5.096
235805.000			-45.864			-5.096
235904.000			-45.862			-5.096
236004.000			-45.861			-5.096
236105.000			-45.861			-5.096
236204.000			-45.860			-5.096
236304.000			-45.860			-5.096
236405.000			-45.861			-5.096
236503.000			-45.860			-5.096
236604.000			-45.860			-5.096
236705.000			-45.859			-5.095
236804.000			-45.859			-5.095
236905.000			-45.859			-5.095
237004.000			-45.857			-5.095
237104.000			-45.856			-5.095
237205.000			-45.856			-5.095
237304.000			-45.856			-5.095
237403.000			-45.856			-5.095
237505.000			-45.856			-5.095
237604.000			-45.855			-5.095
237704.000			-45.854			-5.095
237805.000			-45.854			-5.095
237904.000			-45.854			-5.095
238004.000			-45.854			-5.095
238105.000			-45.855			-5.095
238204.000			-45.852			-5.095
238303.000			-45.852			-5.095
238405.000			-45.852			-5.095
238504.000			-45.851			-5.095
238604.000			-45.851			-5.095
238705.000			-45.850			-5.094
238804.000			-45.850			-5.094
238904.000			-45.850			-5.094
239005.000			-45.849			-5.094
239104.000			-45.850			-5.094
239203.000			-45.850			-5.094
239305.000			-45.849			-5.094
239403.000			-45.848			-5.094
239504.000			-45.848			-5.094
239605.000			-45.848			-5.094
239704.000			-45.847			-5.094
239804.000			-45.846			-5.094
239904.000			-45.846			-5.094
240004.000			-45.847			-5.094
240105.000			-45.847			-5.094
240204.000			-45.846			-5.094
240303.000			-45.845			-5.094
240405.000			-45.845			-5.094
240504.000			-45.846			-5.094
240604.000			-45.845			-5.094
240705.000			-45.843			-5.094
240804.000			-45.842			-5.094
240904.000			-45.843			-5.094
241005.000			-45.843			-5.094
241104.000			-45.842			-5.094
241203.000			-45.842			-5.094
241305.000			-45.840			-5.093
241404.000			-45.840			-5.093
241504.000			-45.841			-5.093
241605.000			-45.840			-5.093
241704.000			-45.840			-5.093
241804.000			-45.839			-5.093
241905.000			-45.838			-5.093
242004.000			-45.839			-5.093
242103.000			-45.840			-5.093
242205.000			-45.839			-5.093
242304.000			-45.839			-5.093
242404.000			-45.839			-5.093
242505.000			-45.837			-5.093
242604.000			-45.837			-5.093
242704.000			-45.835			-5.093
242805.000			-45.836			-5.093
242904.000			-45.835			-5.093
243003.000			-45.834			-5.093
243105.000			-45.834			-5.093
243204.000			-45.835			-5.093
243305.000			-45.833			-5.093
243404.000			-45.833			-5.093
243504.000			-45.833			-5.093
243605.000			-45.833			-5.093
243704.000			-45.833			-5.093
243804.000			-45.832			-5.092
243904.000			-45.833			-5.093
244004.000			-45.832			-5.092
244104.000			-45.831			-5.092
244205.000			-45.830			-5.092
244304.000			-45.830			-5.092
244404.000			-45.831			-5.092
244505.000			-45.830			-5.092
244604.000			-45.828			-5.092
244704.000			-45.829			-5.092
244804.000			-45.829			-5.092
244904.000			-45.829			-5.092
245004.000			-45.828			-5.092
245105.000			-45.826			-5.092
245204.000			-45.826			-5.092
245304.000			-45.826			-5.092
245405.000			-45.827			-5.092
245504.000			-45.826			-5.092
245604.000			-45.826			-5.092
245704.000			-45.824			-5.092
245804.000			-45.825			-5.092
245904.000			-45.825			-5.092
246005.000			-45.825			-5.092
246104.000			-45.824			-5.092
246204.000			-45.822			-5.091
246305.000			-45.822			-5.091
246404.000			-45.823			-5.091
246505.000			-45.822			-5.091
246603.000			-45.821			-5.091
246704.000			-45.821			-5.091
246804.000			-45.821			-5.091
246904.000			-45.820			-5.091
247004.000			-45.820			-5.091
247105.000			-45.819			-5.091
247204.000			-45.819			-5.091
247304.000			-45.819			-5.091
247405.000			-45.818			-5.091
247503.000			-45.818			-5.091
247604.000			-45.816			-5.091
247704.000			-45.817			-5.091
247804.000			-45.817			-5.091
247904.000			-45.817			-5.091
248005.000			-45.817			-5.091
248104.000			-45.815			-5.091
248204.000			-45.815			-5.091
248305.000			-45.814			-5.090
248404.000			-45.813			-5.090
248504.000			-45.814			-5.090
248604.000			-45.815			-5.091
248704.000			-45.814			-5.090
248804.000			-45.813			-5.090
248905.000			-45.813			-5.090
249004.000			-45.812			-5.090
249104.000			-45.812			-5.090
249205.000			-45.811			-5.090
249304.000			-45.811			-5.090
249404.000			-45.812			-5.090
249503.000			-45.812			-5.090
249604.000			-45.812			-5.090
249705.000			-45.810			-5.090
249804.000			-45.809			-5.090
249904.000			-45.809			-5.090
250005.000			-45.809			-5.090
250104.000			-45.809			-5.090
250204.000			-45.810			-5.090
250305.000			-45.809			-5.090
250403.000			-45.807			-5.090
250504.000			-45.808			-5.090
250605.000			-45.807			-5.090
250704.000			-45.807			-5.090
250804.000			-45.807			-5.090
250905.000			-45.806			-5.090
251004.000			-45.806			-5.090
251104.000			-45.805			-5.089
251205.000			-45.805			-5.089
251303.000			-45.804			-5.089
251404.000			-45.803			-5.089
251505.000			-45.804			-5.089
251604.000			-45.802			-5.089
251704.000			-45.802			-5.089
251805.000			-45.803			-5.089
251904.000			-45.803			-5.089
252004.000			-45.802			-5.089
252105.000			-45.800			-5.089
252203.000			-45.800			-5.089
252304.000			-45.800			-5.089
252405.000			-45.800			-5.089
252504.000			-45.800			-5.089
252604.000			-45.798			-5.089
252704.000			-45.798			-5.089
252804.000			-45.799			-5.089
252905.000			-45.798			-5.089
253004.000			-45.798			-5.089
253103.000			-45.798			-5.089
253205.000			-45.797			-5.089
253303.000			-45.797			-5.089
253404.000			-45.797			-5.089
253505.000			-45.796			-5.088
253604.000			-45.795			-5.088
253704.000			-45.795			-5.088
253805.000			-45.794			-5.088
253904.000			-45.795			-5.088
254004.000			-45.795			-5.088
254105.000			-45.795			-5.088
254203.000			-45.795			-5.088
254304.000			-45.794			-5.088
254405.000			-45.793			-5.088
254504.000			-45.792			-5.088
254604.000			-45.792			-5.088
254705.000			-45.792			-5.088
254804.000			-45.792			-5.088
254904.000			-45.791			-5.088
255005.000			-45.790			-5.088
255103.000			-45.791			-5.088
255204.000			-45.791			-5.088
255304.000			-45.790			-5.088
255404.000			-45.789			-5.088
255504.000			-45.788			-5.088
255605.000			-45.789			-5.088
255704.000			-45.788			-5.088
255804.000			-45.788			-5.088
255905.000			-45.787			-5.087
256004.000			-45.787			-5.087
256105.000			-45.787			-5.087
256203.000			-45.787			-5.087
256304.000			-45.787			-5.087
256405.000			-45.786			-5.087
256504.000			-45.786			-5.087
256604.000			-45.786			-5.087
256705.000			-45.785			-5.087
256804.000			-45.784			-5.087
256904.000			-45.785			-5.087
257005.000			-45.785			-5.087
257103.000			-45.784			-5.087
257204.000			-45.784			-5.087
257305.000			-45.783			-5.087
257404.000			-45.784			-5.087
257504.000			-45.783			-5.087
257605.000			-45.782			-5.087
257704.000			-45.782			-5.087
257804.000			-45.781			-5.087
257905.000			-45.782			-5.087
258003.000			-45.781			-5.087
258104.000			-45.780			-5.087
258204.000			-45.779			-5.087
258304.000			-45.778			-5.086
258404.000			-45.778			-5.086
258505.000			-45.778			-5.086
258604.000			-45.778			-5.086
258704.000			-45.777			-5.086
258805.000			-45.777			-5.086
258904.000			-45.778			-5.086
259004.000			-45.777			-5.086
259103.000			-45.777			-5.086
259204.000			-45.776			-5.086
259305.000			-45.776			-5.086
259404.000			-45.775			-5.086
259504.000			-45.776			-5.086
259605.000			-45.775			-5.086
259704.000			-45.775			-5.086
259804.000			-45.775			-5.086
259905.000			-45.775			-5.086
260004.000			-45.773			-5.086
260104.000			-45.773			-5.086
260204.000			-45.772			-5.086
260304.000			-45.772			-5.086
260404.000			-45.773			-5.086
260505.000			-45.772			-5.086
260604.000			-45.772			-5.086
260704.000			-45.770			-5.086
260805.000			-45.770			-5.086
260904.000			-45.770			-5.086
261004.000			-45.770			-5.086
261104.000			-45.770			-5.086
261204.000			-45.770			-5.086
261304.000			-45.768			-5.085
261405.000			-45.769			-5.085
261504.000			-45.768			-5.085
261604.000			-45.769			-5.085
261705.000			-45.768			-5.085
261804.000			-45.767			-5.085
261904.000			-45.767			-5.085
262004.000			-45.767			-5.085
262104.000			-45.767			-5.085
262204.000			-45.767			-5.085
262304.000			-45.767			-5.085
262404.000			-45.766			-5.085
262505.000			-45.765			-5.085
262604.000			-45.765			-5.085
262704.000			-45.766			-5.085
262805.000			-45.764			-5.085
262903.000			-45.763			-5.085
263004.000			-45.763			-5.085
263105.000			-45.762			-5.085
263204.000			-45.761			-5.085
263304.000			-45.762			-5.085
263405.000			-45.762			-5.085
263504.000			-45.763			-5.085
263604.000			-45.762			-5.085
263705.000			-45.760			-5.084
263803.000			-45.761			-5.085
263904.000			-45.762			-5.085
264005.000			-45.761			-5.085
264104.000			-45.760			-5.084
264204.000			-45.758			-5.084
264305.000			-45.758			-5.084
264404.000			-45.758			-5.084
264504.000			-45.758			-5.084
264605.000			-45.758			-5.084
264703.000			-45.758			-5.084
264804.000			-45.757			-5.084
264905.000			-45.756			-5.084
265004.000			-45.756			-5.084
265104.000			-45.756			-5.084
265205.000			-45.755			-5.084
265304.000			-45.755			-5.084
265404.000			-45.755			-5.084
265505.000			-45.754			-5.084
265603.000			-45.754			-5.084
265705.000			-45.753			-5.084
265803.000			-45.753			-5.084
265904.000			-45.752			-5.084
266005.000			-45.752			-5.084
266104.000			-45.751			-5.083
266204.000			-45.752			-5.084
266305.000			-45.753			-5.084
266404.000			-45.751			-5.083
266503.000			-45.752			-5.084
266605.000			-45.751			-5.083
266703.000			-45.750			-5.083
266804.000			-45.749			-5.083
266905.000			-45.750			-5.083
267004.000			-45.750			-5.083
267104.000			-45.749			-5.083
267205.000			-45.748			-5.083
267304.000			-45.747			-5.083
267404.000			-45.746			-5.083
267505.000			-45.747			-5.083
267603.000			-45.747			-5.083
267704.000			-45.747			-5.083
267805.000			-45.745			-5.083
267904.000			-45.746			-5.083
268004.000			-45.745			-5.083
268105.000			-45.745			-5.083
268204.000			-45.745			-5.083
268304.000			-45.744			-5.083
268405.000			-45.744			-5.083
268503.000			-45.741			-5.082
268604.000			-45.741			-5.082
268703.000			-45.740			-5.082
268804.000			-45.741			-5.082
268905.000			-45.741			-5.082
269004.000			-45.741			-5.082
269104.000			-45.742			-5.082
269205.000			16.147			1.794
269304.000			-21.815			-2.424
269403.000			-45.738			-5.082
269505.000			-45.738			-5.082
269603.000			-45.737			-5.082
269704.000			-45.737			-5.082
269805.000			-45.738			-5.082
269904.000			-45.738			-5.082
270004.000			-45.737			-5.082
270105.000			-45.736			-5.082
270204.000			-45.736			-5.082
270304.000			-45.736			-5.082
270405.000			-45.736			-5.082
270503.000			-45.736			-5.082
270604.000			-45.736			-5.082
270705.000			-45.736			-5.082
270804.000			-45.736			-5.082
270904.000			-45.736			-5.082
271005.000			-45.735			-5.082
271104.000			-45.734			-5.082
271204.000			-45.733			-5.081
271305.000			-45.733			-5.081
271403.000			-45.733			-5.081
271504.000			-45.733			-5.081
271605.000			-45.733			-5.081
271704.000			-45.733			-5.081
271804.000			-45.732			-5.081
271904.000			-45.732			-5.081
272004.000			-45.731			-5.081
272105.000			-45.730			-5.081
272204.000			-45.729			-5.081
272303.000			-45.729			-5.081
272405.000			-45.729			-5.081
272504.000			-45.729			-5.081
272604.000			-45.728			-5.081
272705.000			-45.727			-5.081
272804.000			-45.726			-5.081
272904.000			-45.726			-5.081
273005.000			-45.727			-5.081
273104.000			-45.728			-5.081
273203.000			-45.728			-5.081
273305.000			-45.728			-5.081
273404.000			-45.727			-5.081
273504.000			-45.727			-5.081
273605.000			-45.727			-5.081
273704.000			-45.727			-5.081
273804.000			-45.727			-5.081
273905.000			-45.727			-5.081
274004.000			-45.727			-5.081
274103.000			-45.727			-5.081
274205.000			-45.726			-5.081
274304.000			-45.724			-5.080
274404.000			-45.724			-5.080
274505.000			-45.724			-5.080
274604.000			-45.722			-5.080
274704.000			-45.722			-5.080
274805.000			-45.722			-5.080
274904.000			-45.722			-5.080
275003.000			-45.721			-5.080
275105.000			-45.720			-5.080
275204.000			-45.721			-5.080
275305.000			-45.722			-5.080
275404.000			-45.721			-5.080
275504.000			-45.720			-5.080
275605.000			-45.719			-5.080
275704.000			-45.719			-5.080
275804.000			-45.718			-5.080
275904.000			-45.718			-5.080
276004.000			-45.718			-5.080
276104.000			-45.716			-5.080
276205.000			-45.716			-5.080
276304.000			-45.716			-5.080
276404.000			-45.717			-5.080
276505.000			-45.717			-5.080
276604.000			-45.717			-5.080
276704.000			-45.715			-5.079
276804.000			-45.714			-5.079
276904.000			-45.715			-5.079
277004.000			-45.716			-5.080
277105.000			-45.715			-5.079
277204.000			-45.715			-5.079
277304.000			-45.714			-5.079
277405.000			-45.714			-5.079
277504.000			-45.714			-5.079
277604.000			-45.714			-5.079
277704.000			-45.712			-5.079
277804.000			-45.711			-5.079
277904.000			-45.712			-5.079
278005.000			-45.712			-5.079
278104.000			-45.711			-5.079
278204.000			-45.710			-5.079
278305.000			-45.710			-5.079
278404.000			-45.711			-5.079
278505.000			-45.710			-5.079
278603.000			-45.709			-5.079
278704.000			-45.709			-5.079
278804.000			-45.708			-5.079
278904.000			-45.708			-5.079
279004.000			-45.708			-5.079
279105.000			-45.707			-5.079
279204.000			-45.707			-5.079
279304.000			-45.707			-5.079
279405.000			-45.706			-5.078
279504.000			-45.705			-5.078
279604.000			-45.706			-5.078
279704.000			-45.707			-5.079
279804.000			-45.705			-5.078
279904.000			-45.705			-5.078
280005.000			-45.705			-5.078
280104.000			-45.704			-5.078
280204.000			-45.704			-5.078
280305.000			-45.704			-5.078
280404.000			-45.702			-5.078
280504.000			-45.702			-5.078
280604.000			-45.702			-5.078
280704.000			-45.702			-5.078
280804.000			-45.700			-5.078
280905.000			-45.700			-5.078
281004.000			-45.701			-5.078
281104.000			-45.701			-5.078
281205.000			-45.701			-5.078
281303.000			-45.701			-5.078
281404.000			-45.699			-5.078
281503.000			-45.699			-5.078
281604.000			-45.698			-5.078
281705.000			-45.699			-5.078
281804.000			-45.699			-5.078
281904.000			-45.698			-5.078
282005.000			-45.697			-5.077
282104.000			-45.697			-5.077
282204.000			-45.697			-5.077
282305.000			-45.696			-5.077
282403.000			-45.696			-5.077
282504.000			-45.697			-5.077
282605.000			-45.697			-5.077
282704.000			-45.696			-5.077
282804.000			-45.695			-5.077
282905.000			-45.694			-5.077
283004.000			-45.695			-5.077
283104.000			-45.695			-5.077
283205.000			-45.692			-5.077
283303.000			-45.692			-5.077
283404.000			-45.693			-5.077
283504.000			-45.693			-5.077
283604.000			-45.693			-5.077
283704.000			-45.693			-5.077
283805.000			-45.692			-5.077
283904.000			-45.692			-5.077
284004.000			-45.691			-5.077
284105.000			-45.690			-5.077
284203.000			-45.689			-5.077
284304.000			-45.690			-5.077
284404.000			-45.691			-5.077
284504.000			-45.689			-5.077
284604.000			-45.689			-5.077
284704.000			-45.689			-5.077
284804.000			-45.689			-5.077
284905.000			-45.689			-5.077
285004.000			-45.687			-5.076
285104.000			-45.688			-5.076
285205.000			-45.688			-5.076
285303.000			-45.687			-5.076
285404.000			-45.686			-5.076
285504.000			-45.685			-5.076
285604.000			-45.687			-5.076
285704.000			-45.686			-5.076
285805.000			-45.685			-5.076
285904.000			-45.684			-5.076
286004.000			-45.684			-5.076
286105.000			-45.684			-5.076
286204.000			-45.684			-5.076
286304.000			-45.684			-5.076
286404.000			-45.683			-5.076
286504.000			-45.684			-5.076
286604.000			-45.683			-5.076
286705.000			-45.681			-5.076
286804.000			-45.681			-5.076
286904.000			-45.681			-5.076
287005.000			-45.680			-5.076
287104.000			-45.680			-5.076
287204.000			-45.680			-5.076
287304.000			-45.680			-5.076
287404.000			-45.680			-5.076
287503.000			-45.679			-5.075
287605.000			-45.679			-5.075
287704.000			-45.679			-5.075
287804.000			-45.679			-5.075
287905.000			-45.679			-5.075
288004.000			-45.678			-5.075
288105.000			-45.678			-5.075
288204.000			-45.677			-5.075
288304.000			-45.678			-5.075
288404.000			-45.678			-5.075
288504.000			-45.677			-5.075
288603.000			-45.676			-5.075
288705.000			-45.676			-5.075
288804.000			-45.676			-5.075
288904.000			-45.675			-5.075
289005.000			-45.674			-5.075
289104.000			-45.673			-5.075
289204.000			-45.673			-5.075
289304.000			-45.673			-5.075
289404.000			-45.673			-5.075
289503.000			-45.673			-5.075
289605.000			-45.672			-5.075
289704.000			-45.672			-5.075
289804.000			-45.672			-5.075
289905.000			-45.671			-5.075
290004.000			-45.671			-5.075
290104.000			-45.670			-5.074
290205.000			-45.672			-5.075
290304.000			-45.670			-5.074
290403.000			-45.669			-5.074
290505.000			-45.670			-5.074
290604.000			-45.670			-5.074
290704.000			-45.670			-5.074
290805.000			-45.670			-5.074
290904.000			-45.669			-5.074
291004.000			-45.670			-5.074
291104.000			-45.669			-5.074
291204.000			-45.668			-5.074
291305.000			-45.668			-5.074
291404.000			-45.667			-5.074
291503.000			-45.667			-5.074
291605.000			-45.667			-5.074
291704.000			-45.665			-5.074
291804.000			-45.664			-5.074
291905.000			-45.664			-5.074
292004.000			-45.664			-5.074
292104.000			-45.664			-5.074
292205.000			-45.665			-5.074
292304.000			-45.664			-5.074
292403.000			-45.664			-5.074
292505.000			-45.664			-5.074
292604.000			-45.665			-5.074
292704.000			-45.664			-5.074
292805.000			-45.664			-5.074
292904.000			-45.662			-5.074
293004.000			-45.661			-5.073
293105.000			-45.663			-5.074
293204.000			-45.662			-5.074
293303.000			-45.661			-5.073
293405.000			-45.661			-5.073
293504.000			-45.661			-5.073
293604.000			-45.661			-5.073
293705.000			-45.660			-5.073
293804.000			-45.659			-5.073
293904.000			-45.658			-5.073
294005.000			-45.658			-5.073
294104.000			-45.657			-5.073
294203.000			-45.658			-5.073
294305.000			-45.658			-5.073
294404.000			-45.657			-5.073
294505.000			-45.656			-5.073
294604.000			-45.657			-5.073
294704.000			-45.657			-5.073
294805.000			-45.658			-5.073
294904.000			-45.657			-5.073
295004.000			-45.656			-5.073
295105.000			-45.656			-5.073
295204.000			-45.654			-5.073
295303.000			-45.654			-5.073
295405.000			-45.654			-5.073
295504.000			-45.654			-5.073
295604.000			-45.654			-5.073
295705.000			-45.655			-5.073
295804.000			-45.654			-5.073
295904.000			-45.654			-5.073
296005.000			-45.652			-5.072
296104.000			-45.651			-5.072
296203.000			-45.651			-5.072
296305.000			-45.650			-5.072
296404.000			-45.651			-5.072
296504.000			-45.650			-5.072
296605.000			-45.650			-5.072
296704.000			-45.650			-5.072
296804.000			-45.650			-5.072
296905.000			-45.650			-5.072
297004.000			-45.649			-5.072
297103.000			-45.648			-5.072
297205.000			-45.648			-5.072
297303.000			-45.647			-5.072
297404.000			-45.646			-5.072
297505.000			-45.647			-5.072
297604.000			-45.647			-5.072
297705.000			-45.647			-5.072
297804.000			-45.647			-5.072
297904.000			-45.648			-5.072
298005.000			-45.646			-5.072
298104.000			-45.647			-5.072
298203.000			-45.646			-5.072
298305.000			-45.645			-5.072
298404.000			-45.645			-5.072
298504.000			-45.645			-5.072
298605.000			-45.646			-5.072
298704.000			-45.646			-5.072
298804.000			-45.644			-5.072
298905.000			-45.644			-5.072
299004.000			-45.643			-5.071
299103.000			-45.642			-5.071
299205.000			-45.643			-5.071
299304.000			-45.642			-5.071
299404.000			-45.641			-5.071
299505.000			-45.641			-5.071
299604.000			-45.641			-5.071
299704.000			-45.641			-5.071
299805.000			-45.641			-5.071
299904.000			-45.640			-5.071
