# Acquired on 10/01/2024 15:23:41 
# SPIDER: Creep_7mm_07714532B-2
# CREEP MEASUREMENT

# time [ms]		force [N]		stiffness [N/mm]
0.000			-26.765			-3.824
100.000			-28.411			-4.059
201.000			-29.223			-4.175
301.000			-29.068			-4.153
400.000			-28.924			-4.132
500.000			-28.808			-4.115
601.000			-28.708			-4.101
700.000			-28.623			-4.089
800.000			-28.548			-4.078
902.000			-28.480			-4.069
1001.000			-28.363			-4.052
1100.000			-28.311			-4.044
1201.000			-28.264			-4.038
1300.000			-28.220			-4.031
1400.000			-28.179			-4.026
1501.000			-28.140			-4.020
1601.000			-28.103			-4.015
1701.000			-28.034			-4.005
1801.000			-28.003			-4.000
1900.000			-27.972			-3.996
2000.000			-27.944			-3.992
2101.000			-27.917			-3.988
2200.000			-27.890			-3.984
2300.000			-27.865			-3.981
2402.000			-27.819			-3.974
2501.000			-27.797			-3.971
2600.000			-27.774			-3.968
2701.000			-27.753			-3.965
2800.000			-27.732			-3.962
2900.000			-27.712			-3.959
3001.000			-27.693			-3.956
3100.000			-27.675			-3.954
3202.000			-27.639			-3.948
3301.000			-27.622			-3.946
3400.000			-27.605			-3.944
3501.000			-27.589			-3.941
3600.000			-27.573			-3.939
3700.000			-27.558			-3.937
3801.000			-27.543			-3.935
3900.000			-27.514			-3.931
4001.000			-27.500			-3.929
4102.000			-27.487			-3.927
4200.000			-27.473			-3.925
4300.000			-27.460			-3.923
4401.000			-27.447			-3.921
4500.000			-27.434			-3.919
4600.000			-27.410			-3.916
4701.000			-27.398			-3.914
4801.000			-27.385			-3.912
4901.000			-27.375			-3.911
5001.000			-27.364			-3.909
5100.000			-27.353			-3.908
5200.000			-27.342			-3.906
5301.000			-27.322			-3.903
5400.000			-27.311			-3.902
5501.000			-27.300			-3.900
5602.000			-27.290			-3.899
5700.000			-27.281			-3.897
5800.000			-27.271			-3.896
5901.000			-27.262			-3.895
6000.000			-27.252			-3.893
6100.000			-27.234			-3.891
6201.000			-27.225			-3.889
6301.000			-27.215			-3.888
6402.000			-27.206			-3.887
6500.000			-27.199			-3.886
6600.000			-27.189			-3.884
6701.000			-27.181			-3.883
6800.000			-27.166			-3.881
6900.000			-27.158			-3.880
7001.000			-27.149			-3.878
7101.000			-27.142			-3.877
7201.000			-27.134			-3.876
7301.000			-27.125			-3.875
7400.000			-27.118			-3.874
7500.000			-27.104			-3.872
7601.000			-27.096			-3.871
7700.000			-27.089			-3.870
7800.000			-27.081			-3.869
7902.000			-27.074			-3.868
8001.000			-27.068			-3.867
8100.000			-27.061			-3.866
8201.000			-27.054			-3.865
8300.000			-27.041			-3.863
8400.000			-27.034			-3.862
8501.000			-27.027			-3.861
8601.000			-27.022			-3.860
8701.000			-27.015			-3.859
8801.000			-27.009			-3.858
8900.000			-27.003			-3.858
9000.000			-26.990			-3.856
9101.000			-26.984			-3.855
9200.000			-26.977			-3.854
9300.000			-26.971			-3.853
9402.000			-26.966			-3.852
9501.000			-26.961			-3.852
9600.000			-26.954			-3.851
9700.000			-26.942			-3.849
9800.000			-26.937			-3.848
9901.000			-26.932			-3.847
10000.000			-26.926			-3.847
10100.000			-26.921			-3.846
10202.000			-26.916			-3.845
10301.000			-26.910			-3.844
10400.000			-26.905			-3.844
10501.000			-26.894			-3.842
10600.000			-26.888			-3.841
10700.000			-26.883			-3.840
10801.000			-26.879			-3.840
10900.000			-26.874			-3.839
11001.000			-26.868			-3.838
11102.000			-26.863			-3.838
11200.000			-26.853			-3.836
11300.000			-26.850			-3.836
11401.000			-26.844			-3.835
11500.000			-26.838			-3.834
11600.000			-26.834			-3.833
11701.000			-26.830			-3.833
11801.000			-26.826			-3.832
11901.000			-26.815			-3.831
12001.000			-26.810			-3.830
12100.000			-26.806			-3.829
12200.000			-26.801			-3.829
12301.000			-26.797			-3.828
12400.000			-26.793			-3.828
12500.000			-26.788			-3.827
12602.000			-26.780			-3.826
12701.000			-26.775			-3.825
12800.000			-26.772			-3.825
12900.000			-26.767			-3.824
13000.000			-26.762			-3.823
13101.000			-26.759			-3.823
13200.000			-26.755			-3.822
13300.000			-26.750			-3.821
13402.000			-26.742			-3.820
13501.000			-26.737			-3.820
13600.000			-26.734			-3.819
13701.000			-26.730			-3.819
13800.000			-26.725			-3.818
13900.000			-26.722			-3.817
14001.000			-26.718			-3.817
14100.000			-26.710			-3.816
14201.000			-26.706			-3.815
14302.000			-26.703			-3.815
14401.000			-26.699			-3.814
14500.000			-26.695			-3.814
14601.000			-26.692			-3.813
14700.000			-26.687			-3.812
14800.000			-26.679			-3.811
14901.000			-26.676			-3.811
15000.000			-26.672			-3.810
15101.000			-26.668			-3.810
15202.000			-26.664			-3.809
15300.000			-26.660			-3.809
15400.000			-26.657			-3.808
15501.000			-26.651			-3.807
15600.000			-26.648			-3.807
15700.000			-26.644			-3.806
15801.000			-26.639			-3.806
15901.000			-26.636			-3.805
16002.000			-26.634			-3.805
16100.000			-26.629			-3.804
16200.000			-26.627			-3.804
16301.000			-26.620			-3.803
16400.000			-26.617			-3.802
16500.000			-26.614			-3.802
16601.000			-26.611			-3.802
16701.000			-26.607			-3.801
16801.000			-26.604			-3.801
16901.000			-26.601			-3.800
17000.000			-26.593			-3.799
17100.000			-26.590			-3.799
17201.000			-26.587			-3.798
17300.000			-26.583			-3.798
17400.000			-26.581			-3.797
17502.000			-26.578			-3.797
17601.000			-26.575			-3.796
17700.000			-26.569			-3.796
17801.000			-26.565			-3.795
17900.000			-26.563			-3.795
18000.000			-26.560			-3.794
18101.000			-26.558			-3.794
18200.000			-26.554			-3.793
18301.000			-26.550			-3.793
18402.000			-26.548			-3.793
18500.000			-26.541			-3.792
18600.000			-26.539			-3.791
18701.000			-26.536			-3.791
18800.000			-26.532			-3.790
18900.000			-26.530			-3.790
19001.000			-26.528			-3.790
19101.000			-26.525			-3.789
19202.000			-26.518			-3.788
19301.000			-26.516			-3.788
19400.000			-26.514			-3.788
19501.000			-26.511			-3.787
19600.000			-26.507			-3.787
19700.000			-26.505			-3.786
19801.000			-26.502			-3.786
19900.000			-26.497			-3.785
20001.000			-26.493			-3.785
20102.000			-26.491			-3.784
20200.000			-26.489			-3.784
20300.000			-26.486			-3.784
20401.000			-26.483			-3.783
20500.000			-26.479			-3.783
20600.000			-26.476			-3.782
20701.000			-26.473			-3.782
20801.000			-26.470			-3.781
20901.000			-26.466			-3.781
21001.000			-26.464			-3.781
21100.000			-26.461			-3.780
21200.000			-26.459			-3.780
21301.000			-26.456			-3.779
21400.000			-26.452			-3.779
21501.000			-26.449			-3.778
21602.000			-26.447			-3.778
21701.000			-26.443			-3.778
21800.000			-26.441			-3.777
21901.000			-26.439			-3.777
22000.000			-26.436			-3.777
22100.000			-26.431			-3.776
22201.000			-26.428			-3.775
22301.000			-26.426			-3.775
22402.000			-26.424			-3.775
22500.000			-26.421			-3.774
22600.000			-26.419			-3.774
22701.000			-26.417			-3.774
22800.000			-26.413			-3.773
22900.000			-26.410			-3.773
23001.000			-26.407			-3.772
23101.000			-26.405			-3.772
23201.000			-26.404			-3.772
23301.000			-26.401			-3.772
23400.000			-26.399			-3.771
23500.000			-26.396			-3.771
23601.000			-26.392			-3.770
23700.000			-26.388			-3.770
23800.000			-26.386			-3.769
23902.000			-26.384			-3.769
24001.000			-26.382			-3.769
24100.000			-26.380			-3.769
24201.000			-26.377			-3.768
24300.000			-26.374			-3.768
24400.000			-26.370			-3.767
24501.000			-26.368			-3.767
24600.000			-26.366			-3.767
24701.000			-26.364			-3.766
24802.000			-26.362			-3.766
24900.000			-26.359			-3.766
25000.000			-26.357			-3.765
25101.000			-26.354			-3.765
25200.000			-26.351			-3.764
25300.000			-26.348			-3.764
25401.000			-26.345			-3.764
25501.000			-26.345			-3.764
25602.000			-26.344			-3.763
25701.000			-26.338			-3.763
25800.000			-26.335			-3.762
25901.000			-26.334			-3.762
26000.000			-26.331			-3.762
26100.000			-26.330			-3.761
26201.000			-26.328			-3.761
26301.000			-26.326			-3.761
26401.000			-26.323			-3.760
26502.000			-26.318			-3.760
26600.000			-26.317			-3.760
26700.000			-26.316			-3.759
26801.000			-26.314			-3.759
26900.000			-26.310			-3.759
27000.000			-26.310			-3.759
27101.000			-26.308			-3.758
27201.000			-26.303			-3.758
27301.000			-26.301			-3.757
27401.000			-26.299			-3.757
27500.000			-26.298			-3.757
27600.000			-26.295			-3.756
27701.000			-26.294			-3.756
27800.000			-26.293			-3.756
27900.000			-26.288			-3.755
28002.000			-26.286			-3.755
28101.000			-26.284			-3.755
28200.000			-26.282			-3.755
28301.000			-26.280			-3.754
28400.000			-26.278			-3.754
28500.000			-26.276			-3.754
28601.000			-26.274			-3.753
28700.000			-26.270			-3.753
28802.000			-26.268			-3.753
28901.000			-26.265			-3.752
29000.000			-26.264			-3.752
29101.000			-26.263			-3.752
29200.000			-26.261			-3.752
29300.000			-26.259			-3.751
29401.000			-26.255			-3.751
29500.000			-26.253			-3.750
29601.000			-26.252			-3.750
29702.000			-26.250			-3.750
29800.000			-26.248			-3.750
29900.000			-26.247			-3.750
30001.000			-26.245			-3.749
30100.000			-26.241			-3.749
30200.000			-26.238			-3.748
30301.000			-26.236			-3.748
30401.000			-26.236			-3.748
30501.000			-26.235			-3.748
30601.000			-26.233			-3.748
30700.000			-26.231			-3.747
30800.000			-26.227			-3.747
30901.000			-26.225			-3.746
31000.000			-26.223			-3.746
31101.000			-26.221			-3.746
31202.000			-26.220			-3.746
31300.000			-26.218			-3.745
31400.000			-26.215			-3.745
31501.000			-26.214			-3.745
31600.000			-26.212			-3.745
31700.000			-26.209			-3.744
31801.000			-26.208			-3.744
31901.000			-26.206			-3.744
32002.000			-26.204			-3.743
32100.000			-26.201			-3.743
32200.000			-26.200			-3.743
32301.000			-26.196			-3.742
32400.000			-26.196			-3.742
32500.000			-26.194			-3.742
32601.000			-26.192			-3.742
32701.000			-26.191			-3.742
32801.000			-26.189			-3.741
32901.000			-26.187			-3.741
33000.000			-26.184			-3.741
33100.000			-26.182			-3.740
33201.000			-26.180			-3.740
33300.000			-26.177			-3.740
33400.000			-26.176			-3.739
33502.000			-26.174			-3.739
33601.000			-26.173			-3.739
33700.000			-26.171			-3.739
33801.000			-26.168			-3.738
33900.000			-26.166			-3.738
34000.000			-26.165			-3.738
34101.000			-26.163			-3.738
34200.000			-26.161			-3.737
34301.000			-26.160			-3.737
34402.000			-26.159			-3.737
34500.000			-26.156			-3.737
34600.000			-26.154			-3.736
34701.000			-26.152			-3.736
34800.000			-26.150			-3.736
34900.000			-26.149			-3.736
35001.000			-26.147			-3.735
35101.000			-26.146			-3.735
35202.000			-26.142			-3.735
35300.000			-26.141			-3.734
35400.000			-26.140			-3.734
35501.000			-26.139			-3.734
35600.000			-26.136			-3.734
35700.000			-26.134			-3.733
35802.000			-26.134			-3.733
35901.000			-26.130			-3.733
36001.000			-26.129			-3.733
36101.000			-26.127			-3.732
36200.000			-26.125			-3.732
36300.000			-26.124			-3.732
36401.000			-26.122			-3.732
36500.000			-26.120			-3.731
36601.000			-26.118			-3.731
36702.000			-26.115			-3.731
36801.000			-26.114			-3.731
36900.000			-26.113			-3.730
37001.000			-26.111			-3.730
37100.000			-26.110			-3.730
37200.000			-26.110			-3.730
37301.000			-26.108			-3.730
37401.000			-26.105			-3.729
37501.000			-26.104			-3.729
37601.000			-26.102			-3.729
37700.000			-26.100			-3.729
37800.000			-26.099			-3.728
37901.000			-26.098			-3.728
38000.000			-26.096			-3.728
38100.000			-26.092			-3.727
38202.000			-26.091			-3.727
38301.000			-26.090			-3.727
38400.000			-26.089			-3.727
38500.000			-26.087			-3.727
38600.000			-26.086			-3.727
38701.000			-26.086			-3.727
38800.000			-26.082			-3.726
38900.000			-26.080			-3.726
39002.000			-26.079			-3.726
39101.000			-26.078			-3.725
39201.000			-26.076			-3.725
39301.000			-26.074			-3.725
39400.000			-26.072			-3.725
39500.000			-26.071			-3.724
39601.000			-26.068			-3.724
39700.000			-26.068			-3.724
39800.000			-26.067			-3.724
39902.000			-26.066			-3.724
40001.000			-26.064			-3.723
40100.000			-26.062			-3.723
40201.000			-26.060			-3.723
40300.000			-26.057			-3.722
40400.000			-26.055			-3.722
40501.000			-26.055			-3.722
40600.000			-26.053			-3.722
40701.000			-26.053			-3.722
40802.000			-26.051			-3.722
40900.000			-26.050			-3.721
41000.000			-26.047			-3.721
41101.000			-26.046			-3.721
41200.000			-26.044			-3.721
41300.000			-26.043			-3.720
41402.000			-26.041			-3.720
41501.000			-26.040			-3.720
41600.000			-26.039			-3.720
41700.000			-26.038			-3.720
41800.000			-26.034			-3.719
41901.000			-26.033			-3.719
42000.000			-26.033			-3.719
42100.000			-26.032			-3.719
42202.000			-26.031			-3.719
42301.000			-26.030			-3.719
42400.000			-26.027			-3.718
42501.000			-26.025			-3.718
42600.000			-26.023			-3.718
42700.000			-26.021			-3.717
42801.000			-26.021			-3.717
42900.000			-26.020			-3.717
43001.000			-26.018			-3.717
43102.000			-26.017			-3.717
43200.000			-26.015			-3.716
43300.000			-26.013			-3.716
43401.000			-26.012			-3.716
43500.000			-26.011			-3.716
43600.000			-26.010			-3.716
43702.000			-26.009			-3.716
43801.000			-26.007			-3.715
43901.000			-26.005			-3.715
44001.000			-26.003			-3.715
44100.000			-26.003			-3.715
44200.000			-26.002			-3.715
44301.000			-26.001			-3.714
44400.000			-26.000			-3.714
44501.000			-25.999			-3.714
44602.000			-25.998			-3.714
44701.000			-25.995			-3.714
44800.000			-25.994			-3.713
44900.000			-25.993			-3.713
45000.000			-25.992			-3.713
45101.000			-25.992			-3.713
45200.000			-25.990			-3.713
45300.000			-25.988			-3.713
45402.000			-25.987			-3.712
45501.000			-25.986			-3.712
45600.000			-25.984			-3.712
45701.000			-25.984			-3.712
45800.000			-25.983			-3.712
45900.000			-25.981			-3.712
46001.000			-25.980			-3.711
46100.000			-25.978			-3.711
46201.000			-25.977			-3.711
46302.000			-25.976			-3.711
46400.000			-25.975			-3.711
46500.000			-25.974			-3.711
46601.000			-25.973			-3.710
46700.000			-25.971			-3.710
46800.000			-25.971			-3.710
46901.000			-25.969			-3.710
47001.000			-25.968			-3.710
47101.000			-25.967			-3.710
47202.000			-25.965			-3.709
47300.000			-25.964			-3.709
47400.000			-25.963			-3.709
47501.000			-25.963			-3.709
47600.000			-25.960			-3.709
47700.000			-25.959			-3.708
47801.000			-25.957			-3.708
47901.000			-25.956			-3.708
48002.000			-25.956			-3.708
48100.000			-25.955			-3.708
48200.000			-25.954			-3.708
48301.000			-25.951			-3.707
48400.000			-25.950			-3.707
48500.000			-25.949			-3.707
48601.000			-25.948			-3.707
48701.000			-25.948			-3.707
48801.000			-25.946			-3.707
48901.000			-25.945			-3.706
49000.000			-25.942			-3.706
49100.000			-25.941			-3.706
49201.000			-25.942			-3.706
49300.000			-25.940			-3.706
49400.000			-25.938			-3.705
49501.000			-25.937			-3.705
49601.000			-25.938			-3.705
49701.000			-25.936			-3.705
49801.000			-25.934			-3.705
49900.000			-25.933			-3.705
50000.000			-25.932			-3.705
50101.000			-25.931			-3.704
50200.000			-25.930			-3.704
50300.000			-25.929			-3.704
50402.000			-25.927			-3.704
50501.000			-25.924			-3.703
50600.000			-25.924			-3.703
50701.000			-25.923			-3.703
50800.000			-25.922			-3.703
50900.000			-25.921			-3.703
51001.000			-25.921			-3.703
51100.000			-25.920			-3.703
51202.000			-25.917			-3.702
51301.000			-25.916			-3.702
51400.000			-25.914			-3.702
51501.000			-25.913			-3.702
51600.000			-25.913			-3.702
51700.000			-25.910			-3.701
51801.000			-25.909			-3.701
51900.000			-25.909			-3.701
52001.000			-25.907			-3.701
52102.000			-25.907			-3.701
52200.000			-25.906			-3.701
52300.000			-25.905			-3.701
52401.000			-25.904			-3.701
52500.000			-25.902			-3.700
52600.000			-25.901			-3.700
52701.000			-25.898			-3.700
52801.000			-25.898			-3.700
52901.000			-25.897			-3.700
53001.000			-25.896			-3.699
53100.000			-25.895			-3.699
53200.000			-25.894			-3.699
53301.000			-25.893			-3.699
53400.000			-25.890			-3.699
53500.000			-25.891			-3.699
53602.000			-25.890			-3.699
53701.000			-25.888			-3.698
53800.000			-25.886			-3.698
53901.000			-25.885			-3.698
54000.000			-25.884			-3.698
54100.000			-25.882			-3.697
54201.000			-25.880			-3.697
54300.000			-25.879			-3.697
54402.000			-25.879			-3.697
54501.000			-25.878			-3.697
54600.000			-25.878			-3.697
54701.000			-25.876			-3.697
54800.000			-25.876			-3.697
54900.000			-25.873			-3.696
55001.000			-25.871			-3.696
55100.000			-25.872			-3.696
55200.000			-25.871			-3.696
55302.000			-25.869			-3.696
55401.000			-25.868			-3.695
55500.000			-25.867			-3.695
55601.000			-25.865			-3.695
55700.000			-25.865			-3.695
55800.000			-25.864			-3.695
55901.000			-25.863			-3.695
56000.000			-25.862			-3.695
56101.000			-25.862			-3.695
56202.000			-25.860			-3.694
56300.000			-25.857			-3.694
56400.000			-25.857			-3.694
56501.000			-25.856			-3.694
56600.000			-25.855			-3.694
56700.000			-25.854			-3.693
56801.000			-25.854			-3.693
56901.000			-25.852			-3.693
57001.000			-25.850			-3.693
57101.000			-25.848			-3.693
57200.000			-25.848			-3.693
57300.000			-25.847			-3.692
57401.000			-25.846			-3.692
57500.000			-25.846			-3.692
57600.000			-25.845			-3.692
57700.000			-25.844			-3.692
57801.000			-25.842			-3.692
57902.000			-25.841			-3.692
58000.000			-25.840			-3.691
58100.000			-25.839			-3.691
58201.000			-25.838			-3.691
58300.000			-25.837			-3.691
58400.000			-25.836			-3.691
58501.000			-25.834			-3.691
58601.000			-25.833			-3.690
58701.000			-25.833			-3.690
58801.000			-25.832			-3.690
58900.000			-25.831			-3.690
59000.000			-25.830			-3.690
59101.000			-25.829			-3.690
59200.000			-25.828			-3.690
59300.000			-25.827			-3.690
59402.000			-25.826			-3.689
59501.000			-25.825			-3.689
59600.000			-25.823			-3.689
59701.000			-25.822			-3.689
59800.000			-25.821			-3.689
59900.000			-25.821			-3.689
60001.000			-25.819			-3.688
60100.000			-25.817			-3.688
60201.000			-25.816			-3.688
60302.000			-25.816			-3.688
60400.000			-25.815			-3.688
60500.000			-25.814			-3.688
60601.000			-25.813			-3.688
60700.000			-25.811			-3.687
60800.000			-25.809			-3.687
60900.000			-25.808			-3.687
61001.000			-25.808			-3.687
61102.000			-25.807			-3.687
61200.000			-25.806			-3.687
61300.000			-25.805			-3.686
61401.000			-25.803			-3.686
61500.000			-25.802			-3.686
61600.000			-25.802			-3.686
61701.000			-25.802			-3.686
61801.000			-25.800			-3.686
61901.000			-25.798			-3.685
62001.000			-25.798			-3.685
62100.000			-25.796			-3.685
62200.000			-25.795			-3.685
62301.000			-25.793			-3.685
62400.000			-25.793			-3.685
62500.000			-25.792			-3.685
62602.000			-25.790			-3.684
62701.000			-25.789			-3.684
62801.000			-25.789			-3.684
62901.000			-25.787			-3.684
63000.000			-25.786			-3.684
63100.000			-25.785			-3.684
63201.000			-25.784			-3.683
63300.000			-25.783			-3.683
63400.000			-25.783			-3.683
63502.000			-25.783			-3.683
63601.000			-25.780			-3.683
63700.000			-25.779			-3.683
63801.000			-25.779			-3.683
63900.000			-25.778			-3.683
64000.000			-25.777			-3.682
64100.000			-25.776			-3.682
64200.000			-25.776			-3.682
64302.000			-25.774			-3.682
64401.000			-25.773			-3.682
64501.000			-25.772			-3.682
64601.000			-25.771			-3.682
64700.000			-25.771			-3.682
64800.000			-25.769			-3.681
64901.000			-25.768			-3.681
65000.000			-25.768			-3.681
65100.000			-25.768			-3.681
65202.000			-25.767			-3.681
65301.000			-25.766			-3.681
65400.000			-25.764			-3.681
65501.000			-25.763			-3.680
65600.000			-25.763			-3.680
65700.000			-25.762			-3.680
65801.000			-25.760			-3.680
65900.000			-25.759			-3.680
66001.000			-25.758			-3.680
66102.000			-25.758			-3.680
66200.000			-25.756			-3.679
66300.000			-25.755			-3.679
66401.000			-25.753			-3.679
66500.000			-25.753			-3.679
66600.000			-25.753			-3.679
66701.000			-25.752			-3.679
66801.000			-25.750			-3.679
66901.000			-25.750			-3.679
67002.000			-25.750			-3.679
67100.000			-25.750			-3.679
67200.000			-25.748			-3.678
67300.000			-25.746			-3.678
67400.000			-25.745			-3.678
67501.000			-25.745			-3.678
67600.000			-25.744			-3.678
67701.000			-25.742			-3.677
67802.000			-25.742			-3.677
67900.000			-25.742			-3.677
68000.000			-25.740			-3.677
68101.000			-25.739			-3.677
68200.000			-25.739			-3.677
68300.000			-25.739			-3.677
68401.000			-25.739			-3.677
68501.000			-25.738			-3.677
68601.000			-25.736			-3.677
68702.000			-25.734			-3.676
68800.000			-25.734			-3.676
68900.000			-25.734			-3.676
69001.000			-25.733			-3.676
69100.000			-25.733			-3.676
69200.000			-25.732			-3.676
69301.000			-25.730			-3.676
69401.000			-25.729			-3.676
69501.000			-25.729			-3.676
69601.000			-25.728			-3.675
69700.000			-25.728			-3.675
69800.000			-25.727			-3.675
69901.000			-25.725			-3.675
70000.000			-25.724			-3.675
70100.000			-25.724			-3.675
70202.000			-25.723			-3.675
70301.000			-25.722			-3.675
70400.000			-25.721			-3.674
70500.000			-25.721			-3.674
70600.000			-25.720			-3.674
70701.000			-25.719			-3.674
70800.000			-25.718			-3.674
70900.000			-25.716			-3.674
71002.000			-25.716			-3.674
71101.000			-25.715			-3.674
71201.000			-25.714			-3.673
71301.000			-25.713			-3.673
71400.000			-25.713			-3.673
71500.000			-25.712			-3.673
71601.000			-25.710			-3.673
71700.000			-25.709			-3.673
71801.000			-25.709			-3.673
71902.000			-25.708			-3.673
72001.000			-25.708			-3.673
72100.000			-25.708			-3.673
72201.000			-25.706			-3.672
72300.000			-25.704			-3.672
72400.000			-25.703			-3.672
72501.000			-25.702			-3.672
72600.000			-25.701			-3.672
72701.000			-25.701			-3.672
72802.000			-25.701			-3.672
72900.000			-25.699			-3.671
73000.000			-25.699			-3.671
73101.000			-25.697			-3.671
73200.000			-25.696			-3.671
73300.000			-25.696			-3.671
73401.000			-25.695			-3.671
73501.000			-25.694			-3.671
73602.000			-25.693			-3.670
73700.000			-25.692			-3.670
73800.000			-25.691			-3.670
73901.000			-25.690			-3.670
74000.000			-25.690			-3.670
74100.000			-25.689			-3.670
74201.000			-25.688			-3.670
74301.000			-25.687			-3.670
74401.000			-25.685			-3.669
74502.000			-25.685			-3.669
74600.000			-25.684			-3.669
74700.000			-25.683			-3.669
74801.000			-25.683			-3.669
74900.000			-25.682			-3.669
75000.000			-25.681			-3.669
75101.000			-25.681			-3.669
75201.000			-25.679			-3.668
75301.000			-25.677			-3.668
75401.000			-25.677			-3.668
75500.000			-25.676			-3.668
75600.000			-25.675			-3.668
75701.000			-25.674			-3.668
75800.000			-25.674			-3.668
75900.000			-25.672			-3.667
76001.000			-25.670			-3.667
76101.000			-25.670			-3.667
76201.000			-25.669			-3.667
76301.000			-25.668			-3.667
76400.000			-25.667			-3.667
76500.000			-25.668			-3.667
76601.000			-25.667			-3.667
76700.000			-25.665			-3.666
76800.000			-25.664			-3.666
76902.000			-25.663			-3.666
77001.000			-25.663			-3.666
77102.000			-25.662			-3.666
77200.000			-25.661			-3.666
77300.000			-25.661			-3.666
77401.000			-25.660			-3.666
77500.000			-25.658			-3.665
77600.000			-25.658			-3.665
77701.000			-25.658			-3.665
77801.000			-25.656			-3.665
77901.000			-25.656			-3.665
78001.000			-25.656			-3.665
78100.000			-25.655			-3.665
78200.000			-25.654			-3.665
78301.000			-25.652			-3.665
78400.000			-25.652			-3.665
78500.000			-25.651			-3.664
78602.000			-25.650			-3.664
78701.000			-25.650			-3.664
78800.000			-25.649			-3.664
78901.000			-25.648			-3.664
79000.000			-25.648			-3.664
79100.000			-25.647			-3.664
79201.000			-25.647			-3.664
79300.000			-25.646			-3.664
79400.000			-25.646			-3.664
79502.000			-25.644			-3.663
79601.000			-25.643			-3.663
79700.000			-25.642			-3.663
79801.000			-25.642			-3.663
79900.000			-25.641			-3.663
80000.000			-25.640			-3.663
80100.000			-25.640			-3.663
80200.000			-25.639			-3.663
80302.000			-25.638			-3.663
80401.000			-25.637			-3.662
80500.000			-25.636			-3.662
80601.000			-25.636			-3.662
80700.000			-25.635			-3.662
80800.000			-25.632			-3.662
80901.000			-25.632			-3.662
81000.000			-25.632			-3.662
81101.000			-25.630			-3.661
81202.000			-25.630			-3.661
81300.000			-25.629			-3.661
81400.000			-25.628			-3.661
81501.000			-25.628			-3.661
81600.000			-25.626			-3.661
81700.000			-25.625			-3.661
81801.000			-25.625			-3.661
81901.000			-25.624			-3.661
82001.000			-25.623			-3.660
82101.000			-25.623			-3.660
82200.000			-25.621			-3.660
82300.000			-25.620			-3.660
82401.000			-25.620			-3.660
82500.000			-25.620			-3.660
82600.000			-25.619			-3.660
82702.000			-25.618			-3.660
82801.000			-25.617			-3.660
82901.000			-25.616			-3.659
83001.000			-25.616			-3.659
83100.000			-25.616			-3.659
83200.000			-25.615			-3.659
83300.000			-25.613			-3.659
83400.000			-25.612			-3.659
83501.000			-25.612			-3.659
83601.000			-25.611			-3.659
83701.000			-25.611			-3.659
83801.000			-25.609			-3.658
83900.000			-25.609			-3.658
84000.000			-25.607			-3.658
84101.000			-25.607			-3.658
84200.000			-25.607			-3.658
84300.000			-25.606			-3.658
84402.000			-25.604			-3.658
84501.000			-25.604			-3.658
84600.000			-25.604			-3.658
84701.000			-25.602			-3.657
84800.000			-25.602			-3.657
84900.000			-25.601			-3.657
85001.000			-25.600			-3.657
85100.000			-25.600			-3.657
85201.000			-25.600			-3.657
85302.000			-25.599			-3.657
85401.000			-25.599			-3.657
85500.000			-25.596			-3.657
85601.000			-25.596			-3.657
85700.000			-25.596			-3.657
85800.000			-25.595			-3.656
85901.000			-25.594			-3.656
86000.000			-25.594			-3.656
86101.000			-25.593			-3.656
86202.000			-25.592			-3.656
86300.000			-25.592			-3.656
86400.000			-25.591			-3.656
86500.000			-25.590			-3.656
86600.000			-25.589			-3.656
86701.000			-25.589			-3.656
86800.000			-25.588			-3.655
86900.000			-25.587			-3.655
87002.000			-25.586			-3.655
87101.000			-25.585			-3.655
87200.000			-25.585			-3.655
87301.000			-25.584			-3.655
87400.000			-25.584			-3.655
87500.000			-25.584			-3.655
87601.000			-25.583			-3.655
87700.000			-25.582			-3.655
87801.000			-25.581			-3.654
87902.000			-25.581			-3.654
88000.000			-25.580			-3.654
88100.000			-25.579			-3.654
88201.000			-25.579			-3.654
88300.000			-25.578			-3.654
88400.000			-25.577			-3.654
88501.000			-25.577			-3.654
88601.000			-25.576			-3.654
88701.000			-25.575			-3.654
88802.000			-25.575			-3.654
88900.000			-25.575			-3.654
89000.000			-25.575			-3.654
89101.000			-25.573			-3.653
89200.000			-25.572			-3.653
89300.000			-25.572			-3.653
89401.000			-25.572			-3.653
89501.000			-25.572			-3.653
89602.000			-25.571			-3.653
89701.000			-25.570			-3.653
89800.000			-25.567			-3.652
89901.000			-25.566			-3.652
90000.000			-25.566			-3.652
90100.000			-25.566			-3.652
90201.000			-25.566			-3.652
90300.000			-25.565			-3.652
90401.000			-25.564			-3.652
90502.000			-25.563			-3.652
90600.000			-25.562			-3.652
90700.000			-25.562			-3.652
90801.000			-25.561			-3.652
90900.000			-25.561			-3.652
91000.000			-25.560			-3.651
91101.000			-25.559			-3.651
91201.000			-25.559			-3.651
91301.000			-25.558			-3.651
91401.000			-25.558			-3.651
91500.000			-25.557			-3.651
91600.000			-25.555			-3.651
91701.000			-25.555			-3.651
91800.000			-25.555			-3.651
91900.000			-25.555			-3.651
92002.000			-25.554			-3.651
92101.000			-25.554			-3.651
92200.000			-25.553			-3.650
92301.000			-25.552			-3.650
92400.000			-25.552			-3.650
92500.000			-25.551			-3.650
92601.000			-25.551			-3.650
92700.000			-25.550			-3.650
92802.000			-25.548			-3.650
92901.000			-25.547			-3.650
93000.000			-25.549			-3.650
93101.000			-25.549			-3.650
93200.000			-25.546			-3.649
93300.000			-25.547			-3.650
93401.000			-25.546			-3.649
93500.000			-25.546			-3.649
93601.000			-25.544			-3.649
93702.000			-25.544			-3.649
93801.000			-25.544			-3.649
93900.000			-25.543			-3.649
94001.000			-25.543			-3.649
94100.000			-25.543			-3.649
94200.000			-25.542			-3.649
94301.000			-25.540			-3.649
94401.000			-25.539			-3.648
94501.000			-25.539			-3.648
94602.000			-25.540			-3.649
94700.000			-25.539			-3.648
94800.000			-25.538			-3.648
94901.000			-25.537			-3.648
95000.000			-25.536			-3.648
95100.000			-25.535			-3.648
95201.000			-25.535			-3.648
95301.000			-25.535			-3.648
95401.000			-25.534			-3.648
95501.000			-25.533			-3.648
95600.000			-25.533			-3.648
95700.000			-25.532			-3.647
95801.000			-25.532			-3.647
95900.000			-25.532			-3.647
96000.000			-25.531			-3.647
96102.000			-25.529			-3.647
96201.000			-25.529			-3.647
96301.000			-25.529			-3.647
96400.000			-25.527			-3.647
96500.000			-25.527			-3.647
96601.000			-25.527			-3.647
96700.000			-25.526			-3.647
96800.000			-25.526			-3.647
96901.000			-25.525			-3.646
97001.000			-25.525			-3.646
97101.000			-25.522			-3.646
97201.000			-25.522			-3.646
97300.000			-25.522			-3.646
97400.000			-25.521			-3.646
97501.000			-25.520			-3.646
97600.000			-25.520			-3.646
97700.000			-25.520			-3.646
97802.000			-25.520			-3.646
97901.000			-25.519			-3.646
98000.000			-25.518			-3.645
98101.000			-25.517			-3.645
98200.000			-25.515			-3.645
98300.000			-25.515			-3.645
98401.000			-25.515			-3.645
98500.000			-25.515			-3.645
98601.000			-25.514			-3.645
98702.000			-25.514			-3.645
98800.000			-25.513			-3.645
98900.000			-25.513			-3.645
99001.000			-25.512			-3.645
99100.000			-25.512			-3.645
99200.000			-25.511			-3.644
99300.000			-25.509			-3.644
99400.000			-25.508			-3.644
99502.000			-25.508			-3.644
99601.000			-25.507			-3.644
99700.000			-25.506			-3.644
99801.000			-25.505			-3.644
99900.000			-25.505			-3.644
100000.000			-25.505			-3.644
100101.000			-25.504			-3.643
100200.000			-25.503			-3.643
100301.000			-25.503			-3.643
100402.000			-25.503			-3.643
100500.000			-25.502			-3.643
100600.000			-25.502			-3.643
100701.000			-25.502			-3.643
100800.000			-25.499			-3.643
100900.000			-25.500			-3.643
101001.000			-25.499			-3.643
101101.000			-25.497			-3.642
101201.000			-25.498			-3.643
101301.000			-25.497			-3.642
101400.000			-25.497			-3.642
101500.000			-25.496			-3.642
101601.000			-25.496			-3.642
101700.000			-25.494			-3.642
101800.000			-25.493			-3.642
101901.000			-25.492			-3.642
102001.000			-25.492			-3.642
102101.000			-25.491			-3.642
102201.000			-25.490			-3.641
102300.000			-25.490			-3.641
102400.000			-25.490			-3.641
102500.000			-25.489			-3.641
102600.000			-25.487			-3.641
102701.000			-25.486			-3.641
102801.000			-25.486			-3.641
102901.000			-25.486			-3.641
103001.000			-25.485			-3.641
103100.000			-25.485			-3.641
103200.000			-25.484			-3.641
103301.000			-25.484			-3.641
103400.000			-25.484			-3.641
103500.000			-25.484			-3.641
103601.000			-25.482			-3.640
103701.000			-25.481			-3.640
103801.000			-25.481			-3.640
103901.000			-25.481			-3.640
104000.000			-25.479			-3.640
104100.000			-25.479			-3.640
104201.000			-25.479			-3.640
104300.000			-25.478			-3.640
104400.000			-25.477			-3.640
104502.000			-25.476			-3.639
104601.000			-25.476			-3.639
104700.000			-25.475			-3.639
104801.000			-25.475			-3.639
104900.000			-25.474			-3.639
105000.000			-25.473			-3.639
105101.000			-25.473			-3.639
105200.000			-25.472			-3.639
105300.000			-25.472			-3.639
105402.000			-25.471			-3.639
105501.000			-25.472			-3.639
105600.000			-25.471			-3.639
105700.000			-25.469			-3.638
105800.000			-25.470			-3.639
105901.000			-25.469			-3.638
106000.000			-25.468			-3.638
106100.000			-25.467			-3.638
106202.000			-25.466			-3.638
106301.000			-25.466			-3.638
106401.000			-25.466			-3.638
106501.000			-25.465			-3.638
106600.000			-25.463			-3.638
106700.000			-25.461			-3.637
106801.000			-25.461			-3.637
106900.000			-25.461			-3.637
107000.000			-25.461			-3.637
107102.000			-25.460			-3.637
107201.000			-25.460			-3.637
107300.000			-25.459			-3.637
107401.000			-25.459			-3.637
107500.000			-25.458			-3.637
107600.000			-25.457			-3.637
107701.000			-25.457			-3.637
107800.000			-25.456			-3.637
107900.000			-25.455			-3.636
108002.000			-25.455			-3.636
108101.000			-25.454			-3.636
108200.000			-25.453			-3.636
108301.000			-25.454			-3.636
108400.000			-25.454			-3.636
108500.000			-25.453			-3.636
108601.000			-25.450			-3.636
108700.000			-25.451			-3.636
108802.000			-25.450			-3.636
108901.000			-25.450			-3.636
109000.000			-25.449			-3.636
109101.000			-25.449			-3.636
109200.000			-25.449			-3.636
109300.000			-25.449			-3.636
109401.000			-25.448			-3.635
109500.000			-25.446			-3.635
109600.000			-25.445			-3.635
109702.000			-25.444			-3.635
109801.000			-25.444			-3.635
109900.000			-25.443			-3.635
110001.000			-25.443			-3.635
110100.000			-25.443			-3.635
110200.000			-25.442			-3.635
110301.000			-25.442			-3.635
110400.000			-25.442			-3.635
110501.000			-25.441			-3.634
110602.000			-25.440			-3.634
110700.000			-25.440			-3.634
110800.000			-25.440			-3.634
110901.000			-25.440			-3.634
111000.000			-25.437			-3.634
111100.000			-25.437			-3.634
111201.000			-25.437			-3.634
111301.000			-25.436			-3.634
111401.000			-25.436			-3.634
111502.000			-25.436			-3.634
111600.000			-25.436			-3.634
111700.000			-25.434			-3.633
111801.000			-25.435			-3.634
111900.000			-25.433			-3.633
112000.000			-25.433			-3.633
112100.000			-25.433			-3.633
112201.000			-25.432			-3.633
112302.000			-25.431			-3.633
112400.000			-25.430			-3.633
112500.000			-25.430			-3.633
112601.000			-25.430			-3.633
112700.000			-25.429			-3.633
112800.000			-25.428			-3.633
112901.000			-25.428			-3.633
113001.000			-25.428			-3.633
113101.000			-25.427			-3.632
113201.000			-25.426			-3.632
113300.000			-25.426			-3.632
113400.000			-25.424			-3.632
113501.000			-25.424			-3.632
113600.000			-25.424			-3.632
113700.000			-25.424			-3.632
113801.000			-25.423			-3.632
113901.000			-25.422			-3.632
114001.000			-25.421			-3.632
114101.000			-25.422			-3.632
114200.000			-25.421			-3.632
114300.000			-25.420			-3.631
114401.000			-25.420			-3.631
114500.000			-25.420			-3.631
114600.000			-25.419			-3.631
114702.000			-25.418			-3.631
114801.000			-25.418			-3.631
114900.000			-25.418			-3.631
115001.000			-25.417			-3.631
115100.000			-25.416			-3.631
115200.000			-25.414			-3.631
115300.000			-25.414			-3.631
115400.000			-25.414			-3.631
115502.000			-25.414			-3.631
115601.000			-25.414			-3.631
115701.000			-25.413			-3.630
115801.000			-25.413			-3.630
115900.000			-25.412			-3.630
116000.000			-25.412			-3.630
116101.000			-25.411			-3.630
116200.000			-25.411			-3.630
116300.000			-25.410			-3.630
116402.000			-25.409			-3.630
116501.000			-25.409			-3.630
116600.000			-25.408			-3.630
116701.000			-25.408			-3.630
116800.000			-25.407			-3.630
116900.000			-25.406			-3.629
117001.000			-25.406			-3.629
117100.000			-25.406			-3.629
117201.000			-25.405			-3.629
117302.000			-25.405			-3.629
117400.000			-25.405			-3.629
117500.000			-25.403			-3.629
117601.000			-25.403			-3.629
117700.000			-25.402			-3.629
117800.000			-25.401			-3.629
117901.000			-25.402			-3.629
118001.000			-25.401			-3.629
118101.000			-25.400			-3.629
118202.000			-25.400			-3.629
118300.000			-25.399			-3.628
118400.000			-25.398			-3.628
118500.000			-25.397			-3.628
118600.000			-25.397			-3.628
118701.000			-25.397			-3.628
118800.000			-25.396			-3.628
118900.000			-25.396			-3.628
119002.000			-25.394			-3.628
119101.000			-25.393			-3.628
119200.000			-25.393			-3.628
119301.000			-25.393			-3.628
119400.000			-25.393			-3.628
119500.000			-25.392			-3.627
119601.000			-25.392			-3.627
119700.000			-25.390			-3.627
119800.000			-25.390			-3.627
119902.000			-25.389			-3.627
120001.000			-25.389			-3.627
120100.000			-25.389			-3.627
120201.000			-25.389			-3.627
120300.000			-25.388			-3.627
120400.000			-25.387			-3.627
120501.000			-25.386			-3.627
120600.000			-25.386			-3.627
120701.000			-25.385			-3.626
120802.000			-25.385			-3.626
120901.000			-25.385			-3.626
121000.000			-25.385			-3.626
121101.000			-25.385			-3.626
121200.000			-25.383			-3.626
121300.000			-25.383			-3.626
121401.000			-25.383			-3.626
121500.000			-25.383			-3.626
121602.000			-25.382			-3.626
121701.000			-25.382			-3.626
121800.000			-25.382			-3.626
121901.000			-25.381			-3.626
122000.000			-25.380			-3.626
122100.000			-25.380			-3.626
122201.000			-25.379			-3.626
122300.000			-25.378			-3.625
122401.000			-25.378			-3.625
122502.000			-25.377			-3.625
122600.000			-25.377			-3.625
122700.000			-25.377			-3.625
122801.000			-25.377			-3.625
122900.000			-25.376			-3.625
123000.000			-25.375			-3.625
123101.000			-25.374			-3.625
123200.000			-25.375			-3.625
123301.000			-25.375			-3.625
123402.000			-25.373			-3.625
123500.000			-25.373			-3.625
123600.000			-25.374			-3.625
123701.000			-25.373			-3.625
123800.000			-25.373			-3.625
123900.000			-25.372			-3.625
124001.000			-25.372			-3.625
124101.000			-25.371			-3.624
124201.000			-25.372			-3.625
124301.000			-25.370			-3.624
124400.000			-25.369			-3.624
124500.000			-25.369			-3.624
124601.000			-25.370			-3.624
124700.000			-25.369			-3.624
124800.000			-25.368			-3.624
124900.000			-25.368			-3.624
125001.000			-25.368			-3.624
125102.000			-25.366			-3.624
125200.000			-25.365			-3.624
125300.000			-25.365			-3.624
125401.000			-25.365			-3.624
125500.000			-25.365			-3.624
125600.000			-25.364			-3.623
125701.000			-25.364			-3.623
125800.000			-25.364			-3.623
125901.000			-25.364			-3.623
126002.000			-25.363			-3.623
126100.000			-25.362			-3.623
126200.000			-25.361			-3.623
126301.000			-25.360			-3.623
126400.000			-25.361			-3.623
126500.000			-25.361			-3.623
126601.000			-25.361			-3.623
126701.000			-25.360			-3.623
126801.000			-25.359			-3.623
126901.000			-25.359			-3.623
127000.000			-25.358			-3.623
127100.000			-25.357			-3.622
127201.000			-25.356			-3.622
127300.000			-25.357			-3.622
127400.000			-25.357			-3.622
127501.000			-25.355			-3.622
127601.000			-25.354			-3.622
127701.000			-25.354			-3.622
127801.000			-25.353			-3.622
127900.000			-25.354			-3.622
128000.000			-25.353			-3.622
128100.000			-25.352			-3.622
128200.000			-25.351			-3.622
128301.000			-25.350			-3.621
128401.000			-25.350			-3.621
128501.000			-25.350			-3.621
128601.000			-25.350			-3.621
128700.000			-25.348			-3.621
128800.000			-25.348			-3.621
128901.000			-25.349			-3.621
129000.000			-25.348			-3.621
129100.000			-25.347			-3.621
129201.000			-25.347			-3.621
129301.000			-25.346			-3.621
129401.000			-25.345			-3.621
129501.000			-25.345			-3.621
129600.000			-25.343			-3.620
129700.000			-25.342			-3.620
129801.000			-25.343			-3.620
129900.000			-25.344			-3.621
130000.000			-25.342			-3.620
130102.000			-25.342			-3.620
130201.000			-25.340			-3.620
130301.000			-25.339			-3.620
130401.000			-25.339			-3.620
130500.000			-25.340			-3.620
130600.000			-25.339			-3.620
130701.000			-25.337			-3.620
130800.000			-25.337			-3.620
130900.000			-25.336			-3.619
131002.000			-25.336			-3.619
131101.000			-25.335			-3.619
131200.000			-25.335			-3.619
131300.000			-25.334			-3.619
131400.000			-25.334			-3.619
131501.000			-25.334			-3.619
131600.000			-25.333			-3.619
131700.000			-25.332			-3.619
131801.000			-25.332			-3.619
131901.000			-25.332			-3.619
132001.000			-25.331			-3.619
132101.000			-25.331			-3.619
132200.000			-25.330			-3.619
132300.000			-25.330			-3.619
132401.000			-25.329			-3.618
132500.000			-25.329			-3.618
132600.000			-25.328			-3.618
132701.000			-25.327			-3.618
132801.000			-25.328			-3.618
132901.000			-25.327			-3.618
133001.000			-25.326			-3.618
133100.000			-25.325			-3.618
133200.000			-25.325			-3.618
133301.000			-25.325			-3.618
133400.000			-25.325			-3.618
133500.000			-25.325			-3.618
133601.000			-25.322			-3.617
133701.000			-25.322			-3.617
133801.000			-25.323			-3.618
133901.000			-25.323			-3.618
134000.000			-25.323			-3.618
134100.000			-25.323			-3.618
134201.000			-25.323			-3.618
134300.000			-25.320			-3.617
134400.000			-25.319			-3.617
134500.000			-25.320			-3.617
134601.000			-25.321			-3.617
134702.000			-25.321			-3.617
134801.000			-25.319			-3.617
134900.000			-25.319			-3.617
135001.000			-25.319			-3.617
135100.000			-25.318			-3.617
135200.000			-25.317			-3.617
135301.000			-25.316			-3.617
135400.000			-25.316			-3.617
135501.000			-25.315			-3.616
135602.000			-25.315			-3.616
135701.000			-25.315			-3.616
135800.000			-25.313			-3.616
135901.000			-25.313			-3.616
136000.000			-25.314			-3.616
136100.000			-25.314			-3.616
136201.000			-25.313			-3.616
136300.000			-25.313			-3.616
136400.000			-25.312			-3.616
136502.000			-25.311			-3.616
136601.000			-25.311			-3.616
136700.000			-25.311			-3.616
136801.000			-25.310			-3.616
136900.000			-25.309			-3.616
137000.000			-25.308			-3.615
137101.000			-25.307			-3.615
137200.000			-25.307			-3.615
137300.000			-25.307			-3.615
137402.000			-25.307			-3.615
137501.000			-25.306			-3.615
137600.000			-25.305			-3.615
137700.000			-25.306			-3.615
137800.000			-25.305			-3.615
137901.000			-25.304			-3.615
138000.000			-25.304			-3.615
138100.000			-25.304			-3.615
138201.000			-25.304			-3.615
138301.000			-25.304			-3.615
138401.000			-25.303			-3.615
138501.000			-25.303			-3.615
138600.000			-25.303			-3.615
138700.000			-25.302			-3.615
138801.000			-25.301			-3.614
138900.000			-25.300			-3.614
139000.000			-25.300			-3.614
139101.000			-25.300			-3.614
139201.000			-25.299			-3.614
139301.000			-25.299			-3.614
139401.000			-25.299			-3.614
139500.000			-25.299			-3.614
139600.000			-25.299			-3.614
139701.000			-25.298			-3.614
139800.000			-25.297			-3.614
139900.000			-25.297			-3.614
140001.000			-25.297			-3.614
140101.000			-25.295			-3.614
140201.000			-25.294			-3.613
140302.000			-25.295			-3.614
140400.000			-25.295			-3.614
140500.000			-25.294			-3.613
140601.000			-25.293			-3.613
140700.000			-25.293			-3.613
140800.000			-25.294			-3.613
140900.000			-25.293			-3.613
141000.000			-25.292			-3.613
141102.000			-25.292			-3.613
141201.000			-25.292			-3.613
141300.000			-25.290			-3.613
141401.000			-25.290			-3.613
141500.000			-25.291			-3.613
141600.000			-25.289			-3.613
141701.000			-25.289			-3.613
141800.000			-25.290			-3.613
141900.000			-25.288			-3.613
142002.000			-25.288			-3.613
142101.000			-25.288			-3.613
142201.000			-25.287			-3.612
142301.000			-25.287			-3.612
142400.000			-25.286			-3.612
142500.000			-25.286			-3.612
142601.000			-25.287			-3.612
142700.000			-25.286			-3.612
142800.000			-25.285			-3.612
142901.000			-25.284			-3.612
143001.000			-25.284			-3.612
143101.000			-25.285			-3.612
143201.000			-25.284			-3.612
143300.000			-25.284			-3.612
143400.000			-25.284			-3.612
143501.000			-25.283			-3.612
143600.000			-25.283			-3.612
143700.000			-25.281			-3.612
143801.000			-25.279			-3.611
143901.000			-25.279			-3.611
144002.000			-25.279			-3.611
144101.000			-25.279			-3.611
144200.000			-25.280			-3.611
144301.000			-25.279			-3.611
144400.000			-25.278			-3.611
144500.000			-25.278			-3.611
144601.000			-25.278			-3.611
144700.000			-25.277			-3.611
144800.000			-25.276			-3.611
144902.000			-25.276			-3.611
145001.000			-25.276			-3.611
145100.000			-25.277			-3.611
145201.000			-25.276			-3.611
145300.000			-25.274			-3.611
145400.000			-25.273			-3.610
145501.000			-25.273			-3.610
145600.000			-25.273			-3.610
145700.000			-25.271			-3.610
145802.000			-25.272			-3.610
145901.000			-25.271			-3.610
146000.000			-25.271			-3.610
146101.000			-25.270			-3.610
146200.000			-25.269			-3.610
146300.000			-25.270			-3.610
146401.000			-25.269			-3.610
146500.000			-25.270			-3.610
146600.000			-25.268			-3.610
146702.000			-25.267			-3.610
146801.000			-25.267			-3.610
146901.000			-25.267			-3.610
147001.000			-25.267			-3.610
147100.000			-25.266			-3.609
147200.000			-25.265			-3.609
147300.000			-25.265			-3.609
147400.000			-25.265			-3.609
147501.000			-25.265			-3.609
147600.000			-25.263			-3.609
147701.000			-25.264			-3.609
147802.000			-25.264			-3.609
147901.000			-25.263			-3.609
148000.000			-25.263			-3.609
148101.000			-25.263			-3.609
148200.000			-25.260			-3.609
148300.000			-25.261			-3.609
148401.000			-25.261			-3.609
148500.000			-25.261			-3.609
148600.000			-25.260			-3.609
148702.000			-25.259			-3.608
148801.000			-25.259			-3.608
148900.000			-25.259			-3.608
149001.000			-25.259			-3.608
149100.000			-25.258			-3.608
149200.000			-25.258			-3.608
149301.000			-25.257			-3.608
149400.000			-25.257			-3.608
149500.000			-25.257			-3.608
149602.000			-25.256			-3.608
149701.000			-25.255			-3.608
149801.000			-25.254			-3.608
149901.000			-25.255			-3.608
150000.000			-25.255			-3.608
150100.000			-25.255			-3.608
150201.000			-25.254			-3.608
150300.000			-25.253			-3.608
150400.000			-25.252			-3.607
150500.000			-25.252			-3.607
150601.000			-25.252			-3.607
150702.000			-25.252			-3.607
150800.000			-25.252			-3.607
150900.000			-25.251			-3.607
151001.000			-25.250			-3.607
151100.000			-25.249			-3.607
151200.000			-25.249			-3.607
151301.000			-25.249			-3.607
151401.000			-25.248			-3.607
151501.000			-25.249			-3.607
151602.000			-25.248			-3.607
151700.000			-25.247			-3.607
151800.000			-25.246			-3.607
151901.000			-25.246			-3.607
152000.000			-25.245			-3.606
152100.000			-25.245			-3.606
152201.000			-25.245			-3.606
152300.000			-25.245			-3.606
152401.000			-25.245			-3.606
152502.000			-25.244			-3.606
152600.000			-25.243			-3.606
152700.000			-25.242			-3.606
152801.000			-25.241			-3.606
152900.000			-25.241			-3.606
153000.000			-25.241			-3.606
153101.000			-25.241			-3.606
153200.000			-25.241			-3.606
153301.000			-25.238			-3.605
153402.000			-25.239			-3.606
153501.000			-25.239			-3.606
153600.000			-25.239			-3.606
153700.000			-25.238			-3.605
153800.000			-25.238			-3.605
153901.000			-25.237			-3.605
154000.000			-25.236			-3.605
154100.000			-25.235			-3.605
154201.000			-25.235			-3.605
154301.000			-25.235			-3.605
154401.000			-25.235			-3.605
154501.000			-25.234			-3.605
154600.000			-25.234			-3.605
154700.000			-25.234			-3.605
154801.000			-25.233			-3.605
154900.000			-25.232			-3.605
155000.000			-25.233			-3.605
155101.000			-25.231			-3.604
155201.000			-25.230			-3.604
155301.000			-25.230			-3.604
155401.000			-25.230			-3.604
155500.000			-25.229			-3.604
155600.000			-25.228			-3.604
155701.000			-25.229			-3.604
155800.000			-25.229			-3.604
155900.000			-25.228			-3.604
156001.000			-25.227			-3.604
156101.000			-25.227			-3.604
156201.000			-25.228			-3.604
156302.000			-25.227			-3.604
156400.000			-25.226			-3.604
156500.000			-25.226			-3.604
156601.000			-25.226			-3.604
156700.000			-25.226			-3.604
156800.000			-25.227			-3.604
156900.000			-25.225			-3.604
157000.000			-25.224			-3.603
157102.000			-25.224			-3.603
157201.000			-25.223			-3.603
157300.000			-25.222			-3.603
157401.000			-25.222			-3.603
157500.000			-25.222			-3.603
157600.000			-25.223			-3.603
157701.000			-25.221			-3.603
157800.000			-25.221			-3.603
157900.000			-25.221			-3.603
158002.000			-25.220			-3.603
158101.000			-25.219			-3.603
158200.000			-25.218			-3.603
158301.000			-25.219			-3.603
158400.000			-25.219			-3.603
158500.000			-25.218			-3.603
158601.000			-25.218			-3.603
158700.000			-25.218			-3.603
158800.000			-25.217			-3.602
158902.000			-25.217			-3.602
159001.000			-25.217			-3.602
159101.000			-25.216			-3.602
159201.000			-25.215			-3.602
159300.000			-25.215			-3.602
159400.000			-25.214			-3.602
159501.000			-25.215			-3.602
159600.000			-25.214			-3.602
159700.000			-25.214			-3.602
159801.000			-25.213			-3.602
159901.000			-25.214			-3.602
160002.000			-25.214			-3.602
160101.000			-25.213			-3.602
160200.000			-25.212			-3.602
160301.000			-25.212			-3.602
160400.000			-25.212			-3.602
160500.000			-25.212			-3.602
160601.000			-25.210			-3.601
160700.000			-25.209			-3.601
160801.000			-25.209			-3.601
160902.000			-25.209			-3.601
161000.000			-25.209			-3.601
161100.000			-25.208			-3.601
161201.000			-25.209			-3.601
161300.000			-25.207			-3.601
161400.000			-25.207			-3.601
161501.000			-25.208			-3.601
161600.000			-25.206			-3.601
161701.000			-25.206			-3.601
161802.000			-25.207			-3.601
161901.000			-25.206			-3.601
162000.000			-25.206			-3.601
162101.000			-25.204			-3.601
162200.000			-25.203			-3.600
162300.000			-25.203			-3.600
162401.000			-25.204			-3.601
162500.000			-25.204			-3.601
162601.000			-25.203			-3.600
162702.000			-25.203			-3.600
162800.000			-25.203			-3.600
162900.000			-25.203			-3.600
163001.000			-25.203			-3.600
163100.000			-25.201			-3.600
163200.000			-25.201			-3.600
163300.000			-25.201			-3.600
163400.000			-25.201			-3.600
163502.000			-25.201			-3.600
163601.000			-25.201			-3.600
163701.000			-25.200			-3.600
163801.000			-25.199			-3.600
163900.000			-25.200			-3.600
164000.000			-25.200			-3.600
164101.000			-25.199			-3.600
164200.000			-25.198			-3.600
164300.000			-25.197			-3.600
164401.000			-25.197			-3.600
164501.000			-25.198			-3.600
164601.000			-25.197			-3.600
164701.000			-25.197			-3.600
164800.000			-25.197			-3.600
164900.000			-25.197			-3.600
165001.000			-25.195			-3.599
165100.000			-25.196			-3.599
165200.000			-25.196			-3.599
165301.000			-25.195			-3.599
165401.000			-25.194			-3.599
165501.000			-25.194			-3.599
165602.000			-25.193			-3.599
165700.000			-25.193			-3.599
165800.000			-25.192			-3.599
165901.000			-25.193			-3.599
166000.000			-25.192			-3.599
166100.000			-25.192			-3.599
166201.000			-25.191			-3.599
166300.000			-25.190			-3.599
166402.000			-25.191			-3.599
166501.000			-25.191			-3.599
166600.000			-25.191			-3.599
166701.000			-25.191			-3.599
166800.000			-25.190			-3.599
166900.000			-25.190			-3.599
167001.000			-25.190			-3.599
167100.000			-25.190			-3.599
167200.000			-25.188			-3.598
167302.000			-25.187			-3.598
167401.000			-25.188			-3.598
167501.000			-25.188			-3.598
167601.000			-25.187			-3.598
167700.000			-25.188			-3.598
167800.000			-25.187			-3.598
167901.000			-25.184			-3.598
168000.000			-25.185			-3.598
168100.000			-25.184			-3.598
168201.000			-25.184			-3.598
168301.000			-25.185			-3.598
168401.000			-25.185			-3.598
168501.000			-25.185			-3.598
168600.000			-25.183			-3.598
168700.000			-25.183			-3.598
168801.000			-25.183			-3.598
168900.000			-25.183			-3.598
169000.000			-25.182			-3.597
169101.000			-25.182			-3.597
169200.000			-25.181			-3.597
169301.000			-25.179			-3.597
169402.000			-25.180			-3.597
169500.000			-25.180			-3.597
169600.000			-25.180			-3.597
169700.000			-25.180			-3.597
169800.000			-25.178			-3.597
169901.000			-25.178			-3.597
170000.000			-25.177			-3.597
170100.000			-25.178			-3.597
170202.000			-25.178			-3.597
170301.000			-25.176			-3.597
170401.000			-25.175			-3.596
170501.000			-25.176			-3.597
170600.000			-25.176			-3.597
170700.000			-25.174			-3.596
170801.000			-25.175			-3.596
170900.000			-25.175			-3.596
171000.000			-25.175			-3.596
171101.000			-25.174			-3.596
171201.000			-25.175			-3.596
171301.000			-25.174			-3.596
171401.000			-25.174			-3.596
171500.000			-25.173			-3.596
171600.000			-25.172			-3.596
171701.000			-25.172			-3.596
171800.000			-25.172			-3.596
171900.000			-25.172			-3.596
172001.000			-25.171			-3.596
172101.000			-25.170			-3.596
172201.000			-25.170			-3.596
172302.000			-25.169			-3.596
172400.000			-25.170			-3.596
172500.000			-25.170			-3.596
172601.000			-25.170			-3.596
172700.000			-25.169			-3.596
172800.000			-25.168			-3.595
172900.000			-25.167			-3.595
173000.000			-25.167			-3.595
173102.000			-25.167			-3.595
173201.000			-25.168			-3.595
173300.000			-25.166			-3.595
173401.000			-25.166			-3.595
173500.000			-25.165			-3.595
173600.000			-25.166			-3.595
173701.000			-25.165			-3.595
173800.000			-25.165			-3.595
173900.000			-25.164			-3.595
174002.000			-25.164			-3.595
174101.000			-25.164			-3.595
174201.000			-25.163			-3.595
174301.000			-25.163			-3.595
174400.000			-25.161			-3.594
174500.000			-25.161			-3.594
174601.000			-25.161			-3.594
174700.000			-25.162			-3.595
174800.000			-25.162			-3.595
174902.000			-25.162			-3.595
175001.000			-25.161			-3.594
175101.000			-25.160			-3.594
175201.000			-25.159			-3.594
175300.000			-25.159			-3.594
175400.000			-25.159			-3.594
175501.000			-25.158			-3.594
175600.000			-25.158			-3.594
175700.000			-25.158			-3.594
175801.000			-25.158			-3.594
175901.000			-25.157			-3.594
176002.000			-25.157			-3.594
176100.000			-25.157			-3.594
176200.000			-25.156			-3.594
176301.000			-25.156			-3.594
176400.000			-25.156			-3.594
176500.000			-25.155			-3.594
176601.000			-25.154			-3.593
176700.000			-25.155			-3.594
176801.000			-25.154			-3.593
176902.000			-25.153			-3.593
177001.000			-25.153			-3.593
177100.000			-25.153			-3.593
177201.000			-25.152			-3.593
177300.000			-25.152			-3.593
177400.000			-25.151			-3.593
177501.000			-25.152			-3.593
177600.000			-25.151			-3.593
177700.000			-25.150			-3.593
177802.000			-25.151			-3.593
177901.000			-25.151			-3.593
178000.000			-25.150			-3.593
178101.000			-25.149			-3.593
178200.000			-25.149			-3.593
178300.000			-25.148			-3.593
178401.000			-25.148			-3.593
178500.000			-25.149			-3.593
178600.000			-25.148			-3.593
178702.000			-25.147			-3.592
178801.000			-25.147			-3.592
178901.000			-25.147			-3.592
179001.000			-25.147			-3.592
179100.000			-25.147			-3.592
179200.000			-25.147			-3.592
179300.000			-25.146			-3.592
179400.000			-25.145			-3.592
179501.000			-25.145			-3.592
179600.000			-25.144			-3.592
179701.000			-25.144			-3.592
179802.000			-25.144			-3.592
179901.000			-25.143			-3.592
180000.000			-25.142			-3.592
180101.000			-25.142			-3.592
180200.000			-25.142			-3.592
180300.000			-25.141			-3.592
180401.000			-25.141			-3.592
180500.000			-25.141			-3.592
180601.000			-25.141			-3.592
180702.000			-25.141			-3.592
180801.000			-25.140			-3.591
180900.000			-25.139			-3.591
181001.000			-25.139			-3.591
181100.000			-25.138			-3.591
181200.000			-25.138			-3.591
181301.000			-25.138			-3.591
181400.000			-25.139			-3.591
181501.000			-25.139			-3.591
181602.000			-25.137			-3.591
181701.000			-25.137			-3.591
181800.000			-25.137			-3.591
181901.000			-25.137			-3.591
182000.000			-25.136			-3.591
182100.000			-25.135			-3.591
182201.000			-25.135			-3.591
182300.000			-25.136			-3.591
182400.000			-25.134			-3.591
182502.000			-25.135			-3.591
182601.000			-25.134			-3.591
182701.000			-25.133			-3.590
182800.000			-25.132			-3.590
182900.000			-25.134			-3.591
183001.000			-25.134			-3.591
183100.000			-25.133			-3.590
183200.000			-25.133			-3.590
183301.000			-25.132			-3.590
183401.000			-25.131			-3.590
183501.000			-25.131			-3.590
183601.000			-25.131			-3.590
183700.000			-25.130			-3.590
183800.000			-25.130			-3.590
183901.000			-25.130			-3.590
184000.000			-25.129			-3.590
184100.000			-25.129			-3.590
184201.000			-25.129			-3.590
184301.000			-25.129			-3.590
184401.000			-25.127			-3.590
184501.000			-25.126			-3.589
184600.000			-25.128			-3.590
184700.000			-25.128			-3.590
184801.000			-25.128			-3.590
184900.000			-25.127			-3.590
185000.000			-25.125			-3.589
185101.000			-25.125			-3.589
185201.000			-25.125			-3.589
185301.000			-25.126			-3.589
185401.000			-25.126			-3.589
185500.000			-25.125			-3.589
185600.000			-25.125			-3.589
185700.000			-25.124			-3.589
185800.000			-25.124			-3.589
185901.000			-25.124			-3.589
186000.000			-25.124			-3.589
186101.000			-25.122			-3.589
186202.000			-25.122			-3.589
186301.000			-25.122			-3.589
186400.000			-25.121			-3.589
186501.000			-25.121			-3.589
186600.000			-25.120			-3.589
186700.000			-25.120			-3.589
186801.000			-25.120			-3.589
186900.000			-25.120			-3.589
187000.000			-25.120			-3.589
187102.000			-25.119			-3.588
187201.000			-25.119			-3.588
187300.000			-25.120			-3.589
187401.000			-25.119			-3.588
187500.000			-25.119			-3.588
187600.000			-25.118			-3.588
187701.000			-25.117			-3.588
187800.000			-25.117			-3.588
187900.000			-25.117			-3.588
188002.000			-25.117			-3.588
188101.000			-25.116			-3.588
188201.000			-25.115			-3.588
188301.000			-25.116			-3.588
188400.000			-25.115			-3.588
188500.000			-25.115			-3.588
188601.000			-25.115			-3.588
188700.000			-25.115			-3.588
188800.000			-25.114			-3.588
188902.000			-25.113			-3.588
189001.000			-25.114			-3.588
189102.000			-25.113			-3.588
189200.000			-25.113			-3.588
189300.000			-25.112			-3.587
189401.000			-25.111			-3.587
189500.000			-25.111			-3.587
189600.000			-25.111			-3.587
189701.000			-25.111			-3.587
189800.000			-25.111			-3.587
189901.000			-25.111			-3.587
190002.000			-25.110			-3.587
190101.000			-25.110			-3.587
190200.000			-25.109			-3.587
190301.000			-25.109			-3.587
190400.000			-25.109			-3.587
190500.000			-25.107			-3.587
190601.000			-25.107			-3.587
190700.000			-25.107			-3.587
190801.000			-25.107			-3.587
190902.000			-25.107			-3.587
191001.000			-25.106			-3.587
191100.000			-25.106			-3.587
191201.000			-25.105			-3.586
191300.000			-25.105			-3.586
191400.000			-25.103			-3.586
191501.000			-25.104			-3.586
191600.000			-25.104			-3.586
191701.000			-25.103			-3.586
191802.000			-25.103			-3.586
191901.000			-25.103			-3.586
192000.000			-25.102			-3.586
192100.000			-25.101			-3.586
192200.000			-25.102			-3.586
192301.000			-25.102			-3.586
192400.000			-25.101			-3.586
192500.000			-25.100			-3.586
192602.000			-25.101			-3.586
192701.000			-25.101			-3.586
192801.000			-25.100			-3.586
192901.000			-25.099			-3.586
193000.000			-25.099			-3.586
193100.000			-25.100			-3.586
193201.000			-25.099			-3.586
193300.000			-25.098			-3.585
193400.000			-25.098			-3.585
193501.000			-25.097			-3.585
193601.000			-25.098			-3.585
193701.000			-25.097			-3.585
193801.000			-25.097			-3.585
193900.000			-25.097			-3.585
194000.000			-25.097			-3.585
194101.000			-25.096			-3.585
194200.000			-25.096			-3.585
194300.000			-25.095			-3.585
194401.000			-25.095			-3.585
194501.000			-25.094			-3.585
194601.000			-25.093			-3.585
194702.000			-25.093			-3.585
194800.000			-25.093			-3.585
194900.000			-25.092			-3.585
195001.000			-25.093			-3.585
195100.000			-25.092			-3.585
195200.000			-25.092			-3.585
195300.000			-25.091			-3.584
195400.000			-25.091			-3.584
195502.000			-25.091			-3.584
195601.000			-25.091			-3.584
195701.000			-25.091			-3.584
195801.000			-25.090			-3.584
195900.000			-25.089			-3.584
196000.000			-25.088			-3.584
196101.000			-25.087			-3.584
196200.000			-25.088			-3.584
196300.000			-25.088			-3.584
196401.000			-25.088			-3.584
196501.000			-25.088			-3.584
196601.000			-25.087			-3.584
196702.000			-25.087			-3.584
196800.000			-25.086			-3.584
196900.000			-25.087			-3.584
197001.000			-25.085			-3.584
197100.000			-25.085			-3.584
197200.000			-25.084			-3.583
197301.000			-25.084			-3.583
197400.000			-25.083			-3.583
197501.000			-25.084			-3.583
197602.000			-25.083			-3.583
197701.000			-25.082			-3.583
197800.000			-25.083			-3.583
197901.000			-25.082			-3.583
198000.000			-25.083			-3.583
198100.000			-25.082			-3.583
198201.000			-25.081			-3.583
198300.000			-25.081			-3.583
198400.000			-25.081			-3.583
198502.000			-25.080			-3.583
198601.000			-25.080			-3.583
198701.000			-25.080			-3.583
198800.000			-25.080			-3.583
198900.000			-25.079			-3.583
199001.000			-25.081			-3.583
199100.000			-25.080			-3.583
199200.000			-25.079			-3.583
199301.000			-25.078			-3.583
199401.000			-25.077			-3.582
199501.000			-25.077			-3.582
199602.000			-25.077			-3.582
199700.000			-25.077			-3.582
199800.000			-25.076			-3.582
199901.000			-25.077			-3.582
200000.000			-25.076			-3.582
200100.000			-25.076			-3.582
200201.000			-25.075			-3.582
200300.000			-25.075			-3.582
200401.000			-25.075			-3.582
200502.000			-25.075			-3.582
200600.000			-25.076			-3.582
200700.000			-25.075			-3.582
200801.000			-25.075			-3.582
200900.000			-25.073			-3.582
201000.000			-25.073			-3.582
201101.000			-25.073			-3.582
201200.000			-25.073			-3.582
201301.000			-25.073			-3.582
201402.000			-25.072			-3.582
201500.000			-25.071			-3.582
201600.000			-25.071			-3.582
201700.000			-25.071			-3.582
201800.000			-25.071			-3.582
201901.000			-25.071			-3.582
202000.000			-25.071			-3.582
202100.000			-25.071			-3.582
202202.000			-25.070			-3.581
202301.000			-25.070			-3.581
202400.000			-25.070			-3.581
202501.000			-25.071			-3.582
202600.000			-25.070			-3.581
202700.000			-25.070			-3.581
202801.000			-25.069			-3.581
202900.000			-25.068			-3.581
203000.000			-25.068			-3.581
203102.000			-25.068			-3.581
203201.000			-25.068			-3.581
203300.000			-25.068			-3.581
203401.000			-25.067			-3.581
203500.000			-25.067			-3.581
203600.000			-25.068			-3.581
203701.000			-25.067			-3.581
203800.000			-25.066			-3.581
203900.000			-25.066			-3.581
204002.000			-25.065			-3.581
204101.000			-25.065			-3.581
204201.000			-25.064			-3.581
204301.000			-25.065			-3.581
204400.000			-25.064			-3.581
204500.000			-25.064			-3.581
204601.000			-25.064			-3.581
204700.000			-25.063			-3.580
204800.000			-25.063			-3.580
204902.000			-25.063			-3.580
205001.000			-25.064			-3.581
205102.000			-25.063			-3.580
205200.000			-25.062			-3.580
205300.000			-25.062			-3.580
205401.000			-25.061			-3.580
205500.000			-25.061			-3.580
205600.000			-25.060			-3.580
205701.000			-25.060			-3.580
205801.000			-25.061			-3.580
205901.000			-25.060			-3.580
206002.000			-25.058			-3.580
206100.000			-25.059			-3.580
206200.000			-25.059			-3.580
206301.000			-25.058			-3.580
206400.000			-25.057			-3.580
206500.000			-25.058			-3.580
206601.000			-25.057			-3.580
206700.000			-25.057			-3.580
206801.000			-25.056			-3.579
206902.000			-25.056			-3.579
207000.000			-25.056			-3.579
207100.000			-25.057			-3.580
207201.000			-25.055			-3.579
207300.000			-25.055			-3.579
207400.000			-25.055			-3.579
207501.000			-25.055			-3.579
207600.000			-25.054			-3.579
207701.000			-25.054			-3.579
207802.000			-25.054			-3.579
207900.000			-25.052			-3.579
208000.000			-25.053			-3.579
208100.000			-25.052			-3.579
208200.000			-25.052			-3.579
208301.000			-25.051			-3.579
208400.000			-25.052			-3.579
208500.000			-25.052			-3.579
208602.000			-25.051			-3.579
208701.000			-25.051			-3.579
208800.000			-25.050			-3.579
208901.000			-25.049			-3.578
209000.000			-25.048			-3.578
209100.000			-25.048			-3.578
209201.000			-25.048			-3.578
209300.000			-25.047			-3.578
209400.000			-25.047			-3.578
209502.000			-25.047			-3.578
209601.000			-25.046			-3.578
209701.000			-25.046			-3.578
209801.000			-25.045			-3.578
209900.000			-25.044			-3.578
210000.000			-25.045			-3.578
210101.000			-25.044			-3.578
210200.000			-25.044			-3.578
210300.000			-25.044			-3.578
210402.000			-25.044			-3.578
210501.000			-25.044			-3.578
210601.000			-25.043			-3.578
210701.000			-25.043			-3.578
210800.000			-25.043			-3.578
210900.000			-25.042			-3.577
211001.000			-25.041			-3.577
211100.000			-25.043			-3.578
211200.000			-25.042			-3.577
211302.000			-25.041			-3.577
211401.000			-25.040			-3.577
211501.000			-25.041			-3.577
211600.000			-25.041			-3.577
211700.000			-25.040			-3.577
211801.000			-25.039			-3.577
211900.000			-25.039			-3.577
212000.000			-25.039			-3.577
212101.000			-25.038			-3.577
212201.000			-25.038			-3.577
212301.000			-25.037			-3.577
212401.000			-25.037			-3.577
212500.000			-25.038			-3.577
212600.000			-25.038			-3.577
212701.000			-25.038			-3.577
212800.000			-25.036			-3.577
212900.000			-25.035			-3.576
213001.000			-25.035			-3.576
213101.000			-25.035			-3.576
213201.000			-25.035			-3.576
213301.000			-25.035			-3.576
213400.000			-25.034			-3.576
213500.000			-25.033			-3.576
213601.000			-25.033			-3.576
213700.000			-25.033			-3.576
213800.000			-25.032			-3.576
213901.000			-25.031			-3.576
214001.000			-25.031			-3.576
214101.000			-25.032			-3.576
214201.000			-25.032			-3.576
214300.000			-25.031			-3.576
214400.000			-25.030			-3.576
214500.000			-25.029			-3.576
214600.000			-25.030			-3.576
214701.000			-25.030			-3.576
214800.000			-25.031			-3.576
214901.000			-25.031			-3.576
215002.000			-25.030			-3.576
215100.000			-25.029			-3.576
215200.000			-25.028			-3.575
215301.000			-25.028			-3.575
215400.000			-25.029			-3.576
215500.000			-25.029			-3.576
215601.000			-25.028			-3.575
215700.000			-25.027			-3.575
215801.000			-25.026			-3.575
215902.000			-25.028			-3.575
216000.000			-25.027			-3.575
216100.000			-25.026			-3.575
216201.000			-25.026			-3.575
216300.000			-25.027			-3.575
216400.000			-25.027			-3.575
216501.000			-25.027			-3.575
216600.000			-25.026			-3.575
216701.000			-25.026			-3.575
216802.000			-25.026			-3.575
216901.000			-25.025			-3.575
217000.000			-25.026			-3.575
217101.000			-25.026			-3.575
217200.000			-25.025			-3.575
217300.000			-25.024			-3.575
217401.000			-25.024			-3.575
217500.000			-25.024			-3.575
217602.000			-25.024			-3.575
217701.000			-25.023			-3.575
217801.000			-25.022			-3.575
217901.000			-25.022			-3.575
218000.000			-25.022			-3.575
218100.000			-25.021			-3.574
218201.000			-25.021			-3.574
218300.000			-25.021			-3.574
218400.000			-25.023			-3.575
218502.000			-25.022			-3.575
218601.000			-25.021			-3.574
218701.000			-25.021			-3.574
218801.000			-25.020			-3.574
218900.000			-25.021			-3.574
219000.000			-25.020			-3.574
219101.000			-25.020			-3.574
219200.000			-25.019			-3.574
219300.000			-25.019			-3.574
219401.000			-25.019			-3.574
219501.000			-25.019			-3.574
219601.000			-25.018			-3.574
219701.000			-25.018			-3.574
219800.000			-25.019			-3.574
219900.000			-25.018			-3.574
220001.000			-25.018			-3.574
220100.000			-25.018			-3.574
220200.000			-25.017			-3.574
220301.000			-25.016			-3.574
220401.000			-25.016			-3.574
220501.000			-25.016			-3.574
220601.000			-25.015			-3.574
220700.000			-25.015			-3.574
220800.000			-25.015			-3.574
220900.000			-25.014			-3.573
221000.000			-25.015			-3.574
221101.000			-25.015			-3.574
221200.000			-25.014			-3.573
221301.000			-25.014			-3.573
221402.000			-25.014			-3.573
221500.000			-25.015			-3.574
221600.000			-25.014			-3.573
221701.000			-25.013			-3.573
221800.000			-25.013			-3.573
221900.000			-25.014			-3.573
222001.000			-25.013			-3.573
222100.000			-25.013			-3.573
222201.000			-25.012			-3.573
222302.000			-25.011			-3.573
222400.000			-25.011			-3.573
222500.000			-25.010			-3.573
222601.000			-25.010			-3.573
222700.000			-25.010			-3.573
222800.000			-25.011			-3.573
222901.000			-25.009			-3.573
223001.000			-25.009			-3.573
223101.000			-25.009			-3.573
223202.000			-25.009			-3.573
223300.000			-25.008			-3.573
223400.000			-25.008			-3.573
223501.000			-25.008			-3.573
223600.000			-25.008			-3.573
223700.000			-25.009			-3.573
223801.000			-25.009			-3.573
223901.000			-25.008			-3.573
224002.000			-25.008			-3.573
224101.000			-25.008			-3.573
224200.000			-25.007			-3.572
224301.000			-25.007			-3.572
224400.000			-25.005			-3.572
224500.000			-25.004			-3.572
224601.000			-25.005			-3.572
224700.000			-25.005			-3.572
224800.000			-25.004			-3.572
224902.000			-25.004			-3.572
225001.000			-25.004			-3.572
225100.000			-25.004			-3.572
225201.000			-25.004			-3.572
225300.000			-25.003			-3.572
225400.000			-25.003			-3.572
225501.000			-25.003			-3.572
225600.000			-25.003			-3.572
225700.000			-25.003			-3.572
225802.000			-25.003			-3.572
225901.000			-25.002			-3.572
226000.000			-25.003			-3.572
226101.000			-25.003			-3.572
226200.000			-25.003			-3.572
226300.000			-25.002			-3.572
226401.000			-25.001			-3.572
226500.000			-25.001			-3.572
226601.000			-25.001			-3.572
226702.000			-25.000			-3.571
226801.000			-25.000			-3.571
226900.000			-25.000			-3.571
227001.000			-25.000			-3.571
227100.000			-25.000			-3.571
227200.000			-25.000			-3.571
227300.000			-24.999			-3.571
227400.000			-24.997			-3.571
227501.000			-24.998			-3.571
227601.000			-24.999			-3.571
227701.000			-24.998			-3.571
227802.000			-24.997			-3.571
227900.000			-24.998			-3.571
228000.000			-24.997			-3.571
228101.000			-24.996			-3.571
228200.000			-24.998			-3.571
228300.000			-24.997			-3.571
228401.000			-24.996			-3.571
228500.000			-24.996			-3.571
228600.000			-24.996			-3.571
228702.000			-24.996			-3.571
228801.000			-24.996			-3.571
228900.000			-24.997			-3.571
229001.000			-24.995			-3.571
229100.000			-24.995			-3.571
229200.000			-24.996			-3.571
229301.000			-24.994			-3.571
229400.000			-24.993			-3.570
229500.000			-24.994			-3.571
229602.000			-24.993			-3.570
229701.000			-24.993			-3.570
229801.000			-24.991			-3.570
229901.000			-24.991			-3.570
230000.000			-24.991			-3.570
230100.000			-24.990			-3.570
230201.000			-24.991			-3.570
230300.000			-24.991			-3.570
230400.000			-24.991			-3.570
230500.000			-24.989			-3.570
230601.000			-24.990			-3.570
230702.000			-24.990			-3.570
230801.000			-24.990			-3.570
230900.000			-24.990			-3.570
231001.000			-24.989			-3.570
231100.000			-24.989			-3.570
231200.000			-24.989			-3.570
231301.000			-24.989			-3.570
231400.000			-24.989			-3.570
231500.000			-24.989			-3.570
231602.000			-24.988			-3.570
231701.000			-24.987			-3.570
231800.000			-24.986			-3.569
231901.000			-24.986			-3.569
232000.000			-24.986			-3.569
232100.000			-24.986			-3.569
232201.000			-24.985			-3.569
232300.000			-24.985			-3.569
232400.000			-24.984			-3.569
232502.000			-24.984			-3.569
232601.000			-24.984			-3.569
232701.000			-24.982			-3.569
232801.000			-24.982			-3.569
232900.000			-24.982			-3.569
233000.000			-24.981			-3.569
233101.000			-24.981			-3.569
233200.000			-24.982			-3.569
233300.000			-24.981			-3.569
233401.000			-24.980			-3.569
233501.000			-24.980			-3.569
233602.000			-24.980			-3.569
233700.000			-24.980			-3.569
233800.000			-24.980			-3.569
233901.000			-24.979			-3.568
234000.000			-24.978			-3.568
234100.000			-24.977			-3.568
234201.000			-24.978			-3.568
234300.000			-24.978			-3.568
234400.000			-24.977			-3.568
234502.000			-24.976			-3.568
234601.000			-24.977			-3.568
234700.000			-24.977			-3.568
234801.000			-24.976			-3.568
234900.000			-24.975			-3.568
235000.000			-24.975			-3.568
235101.000			-24.975			-3.568
235200.000			-24.974			-3.568
235300.000			-24.974			-3.568
235402.000			-24.975			-3.568
235501.000			-24.976			-3.568
235601.000			-24.976			-3.568
235701.000			-24.975			-3.568
235800.000			-24.974			-3.568
235900.000			-24.974			-3.568
236001.000			-24.974			-3.568
236100.000			-24.974			-3.568
236200.000			-24.974			-3.568
236301.000			-24.974			-3.568
236401.000			-24.974			-3.568
236501.000			-24.973			-3.568
236602.000			-24.973			-3.568
236700.000			-24.973			-3.568
236800.000			-24.973			-3.568
236900.000			-24.973			-3.568
237000.000			-24.972			-3.567
237101.000			-24.971			-3.567
237200.000			-24.971			-3.567
237300.000			-24.971			-3.567
237402.000			-24.971			-3.567
237501.000			-24.971			-3.567
237600.000			-24.971			-3.567
237701.000			-24.971			-3.567
237800.000			-24.970			-3.567
237900.000			-24.970			-3.567
238001.000			-24.969			-3.567
238100.000			-24.968			-3.567
238200.000			-24.969			-3.567
238301.000			-24.969			-3.567
238401.000			-24.969			-3.567
238501.000			-24.967			-3.567
238601.000			-24.967			-3.567
238700.000			-24.967			-3.567
238800.000			-24.967			-3.567
238901.000			-24.968			-3.567
239000.000			-24.967			-3.567
239100.000			-24.967			-3.567
239201.000			-24.967			-3.567
239300.000			-24.966			-3.567
239401.000			-24.966			-3.567
239502.000			-24.965			-3.566
239600.000			-24.965			-3.566
239700.000			-24.965			-3.566
239801.000			-24.965			-3.566
239900.000			-24.964			-3.566
240000.000			-24.963			-3.566
240100.000			-24.963			-3.566
240200.000			-24.963			-3.566
240301.000			-24.963			-3.566
240401.000			-24.962			-3.566
240501.000			-24.963			-3.566
240601.000			-24.963			-3.566
240700.000			-24.961			-3.566
240800.000			-24.961			-3.566
240901.000			-24.962			-3.566
241000.000			-24.961			-3.566
241100.000			-24.961			-3.566
241201.000			-24.961			-3.566
241301.000			-24.960			-3.566
241401.000			-24.961			-3.566
241502.000			-24.960			-3.566
241600.000			-24.959			-3.566
241700.000			-24.959			-3.566
241801.000			-24.958			-3.565
241900.000			-24.958			-3.565
242000.000			-24.958			-3.565
242101.000			-24.958			-3.565
242200.000			-24.958			-3.565
242301.000			-24.958			-3.565
242402.000			-24.957			-3.565
242500.000			-24.956			-3.565
242600.000			-24.956			-3.565
242701.000			-24.956			-3.565
242800.000			-24.956			-3.565
242900.000			-24.956			-3.565
243001.000			-24.955			-3.565
243100.000			-24.955			-3.565
243200.000			-24.956			-3.565
243302.000			-24.955			-3.565
243401.000			-24.954			-3.565
243501.000			-24.955			-3.565
243600.000			-24.955			-3.565
243700.000			-24.955			-3.565
243801.000			-24.955			-3.565
243900.000			-24.954			-3.565
244000.000			-24.953			-3.565
244101.000			-24.953			-3.565
244201.000			-24.952			-3.565
244301.000			-24.951			-3.564
244401.000			-24.952			-3.565
244500.000			-24.952			-3.565
244600.000			-24.952			-3.565
244701.000			-24.951			-3.564
244800.000			-24.951			-3.564
244900.000			-24.951			-3.564
245001.000			-24.951			-3.564
245101.000			-24.951			-3.564
245201.000			-24.950			-3.564
245302.000			-24.949			-3.564
245400.000			-24.949			-3.564
245500.000			-24.948			-3.564
245601.000			-24.948			-3.564
245700.000			-24.949			-3.564
245800.000			-24.948			-3.564
245901.000			-24.947			-3.564
246000.000			-24.947			-3.564
246101.000			-24.948			-3.564
246202.000			-24.948			-3.564
246301.000			-24.947			-3.564
246400.000			-24.946			-3.564
246500.000			-24.946			-3.564
246600.000			-24.946			-3.564
246701.000			-24.945			-3.564
246800.000			-24.945			-3.564
246900.000			-24.945			-3.564
247001.000			-24.944			-3.563
247101.000			-24.945			-3.564
247201.000			-24.944			-3.563
247302.000			-24.943			-3.563
247400.000			-24.943			-3.563
247500.000			-24.943			-3.563
247601.000			-24.944			-3.563
247700.000			-24.943			-3.563
247800.000			-24.944			-3.563
247901.000			-24.943			-3.563
248000.000			-24.943			-3.563
248101.000			-24.943			-3.563
248202.000			-24.943			-3.563
248300.000			-24.942			-3.563
248400.000			-24.941			-3.563
248501.000			-24.941			-3.563
248600.000			-24.941			-3.563
248700.000			-24.942			-3.563
248801.000			-24.941			-3.563
248900.000			-24.941			-3.563
249000.000			-24.940			-3.563
249102.000			-24.940			-3.563
249201.000			-24.940			-3.563
249300.000			-24.940			-3.563
249401.000			-24.939			-3.563
249500.000			-24.939			-3.563
249600.000			-24.939			-3.563
249700.000			-24.939			-3.563
249800.000			-24.939			-3.563
249901.000			-24.938			-3.563
250000.000			-24.938			-3.563
250101.000			-24.937			-3.562
250202.000			-24.938			-3.563
250300.000			-24.938			-3.563
250400.000			-24.937			-3.562
250501.000			-24.935			-3.562
250600.000			-24.935			-3.562
250700.000			-24.936			-3.562
250801.000			-24.936			-3.562
250900.000			-24.936			-3.562
251001.000			-24.935			-3.562
251102.000			-24.935			-3.562
251201.000			-24.935			-3.562
251300.000			-24.934			-3.562
251401.000			-24.935			-3.562
251500.000			-24.934			-3.562
251600.000			-24.934			-3.562
251701.000			-24.934			-3.562
251800.000			-24.933			-3.562
251901.000			-24.933			-3.562
252002.000			-24.932			-3.562
252101.000			-24.932			-3.562
252200.000			-24.932			-3.562
252301.000			-24.931			-3.562
252400.000			-24.930			-3.561
252500.000			-24.931			-3.562
252601.000			-24.932			-3.562
252700.000			-24.931			-3.562
252800.000			-24.930			-3.561
252902.000			-24.931			-3.562
253001.000			-24.930			-3.561
253101.000			-24.930			-3.561
253200.000			-24.931			-3.562
253300.000			-24.930			-3.561
253401.000			-24.929			-3.561
253500.000			-24.929			-3.561
253600.000			-24.929			-3.561
253701.000			-24.930			-3.561
253801.000			-24.929			-3.561
253901.000			-24.928			-3.561
254002.000			-24.928			-3.561
254100.000			-24.929			-3.561
254200.000			-24.929			-3.561
254301.000			-24.928			-3.561
254400.000			-24.928			-3.561
254500.000			-24.928			-3.561
254601.000			-24.928			-3.561
254700.000			-24.927			-3.561
254801.000			-24.927			-3.561
254902.000			-24.927			-3.561
255000.000			-24.927			-3.561
255100.000			-24.927			-3.561
255201.000			-24.927			-3.561
255300.000			-24.927			-3.561
255400.000			-24.926			-3.561
255501.000			-24.926			-3.561
255600.000			-24.927			-3.561
255700.000			-24.926			-3.561
255802.000			-24.924			-3.561
255901.000			-24.926			-3.561
256000.000			-24.925			-3.561
256100.000			-24.925			-3.561
256200.000			-24.925			-3.561
256301.000			-24.924			-3.561
256400.000			-24.924			-3.561
256500.000			-24.923			-3.560
256601.000			-24.923			-3.560
256701.000			-24.923			-3.560
256801.000			-24.923			-3.560
256902.000			-24.923			-3.560
257000.000			-24.921			-3.560
257100.000			-24.921			-3.560
257201.000			-24.922			-3.560
257300.000			-24.921			-3.560
257400.000			-24.920			-3.560
257501.000			-24.921			-3.560
257601.000			-24.921			-3.560
257701.000			-24.921			-3.560
257802.000			-24.921			-3.560
257900.000			-24.919			-3.560
258000.000			-24.919			-3.560
258101.000			-24.919			-3.560
258200.000			-24.919			-3.560
258300.000			-24.918			-3.560
258401.000			-24.919			-3.560
258500.000			-24.918			-3.560
258601.000			-24.918			-3.560
258702.000			-24.917			-3.560
258801.000			-24.917			-3.560
258900.000			-24.917			-3.560
259001.000			-24.919			-3.560
259100.000			-24.917			-3.560
259200.000			-24.916			-3.559
259300.000			-24.917			-3.560
259400.000			-24.916			-3.559
259501.000			-24.917			-3.560
259601.000			-24.916			-3.559
259701.000			-24.916			-3.559
259802.000			-24.915			-3.559
259900.000			-24.915			-3.559
260000.000			-24.914			-3.559
260101.000			-24.914			-3.559
260200.000			-24.914			-3.559
260300.000			-24.914			-3.559
260401.000			-24.914			-3.559
260500.000			-24.914			-3.559
260601.000			-24.913			-3.559
260702.000			-24.913			-3.559
260800.000			-24.912			-3.559
260900.000			-24.912			-3.559
261001.000			-24.913			-3.559
261100.000			-24.912			-3.559
261200.000			-24.911			-3.559
261301.000			-24.911			-3.559
261400.000			-24.912			-3.559
261501.000			-24.911			-3.559
261602.000			-24.910			-3.559
261700.000			-24.909			-3.558
261800.000			-24.909			-3.558
261901.000			-24.910			-3.559
262000.000			-24.909			-3.558
262100.000			-24.908			-3.558
262201.000			-24.908			-3.558
262300.000			-24.908			-3.558
262402.000			-24.908			-3.558
262501.000			-24.907			-3.558
262601.000			-24.908			-3.558
262701.000			-24.907			-3.558
262800.000			-24.907			-3.558
262900.000			-24.907			-3.558
263001.000			-24.906			-3.558
263100.000			-24.906			-3.558
263200.000			-24.906			-3.558
263301.000			-24.905			-3.558
263401.000			-24.905			-3.558
263501.000			-24.905			-3.558
263601.000			-24.905			-3.558
263700.000			-24.904			-3.558
263800.000			-24.904			-3.558
263901.000			-24.904			-3.558
264000.000			-24.905			-3.558
264100.000			-24.905			-3.558
264201.000			-24.905			-3.558
264301.000			-24.905			-3.558
264401.000			-24.903			-3.558
264501.000			-24.903			-3.558
264600.000			-24.903			-3.558
264700.000			-24.903			-3.558
264801.000			-24.902			-3.557
264900.000			-24.902			-3.557
265000.000			-24.903			-3.558
265101.000			-24.903			-3.558
265201.000			-24.902			-3.557
265301.000			-24.901			-3.557
265402.000			-24.901			-3.557
265500.000			-24.901			-3.557
265600.000			-24.901			-3.557
265700.000			-24.902			-3.557
265800.000			-24.902			-3.557
265901.000			-24.901			-3.557
266000.000			-24.900			-3.557
266100.000			-24.900			-3.557
266202.000			-24.901			-3.557
266301.000			-24.900			-3.557
266400.000			-24.900			-3.557
266501.000			-24.899			-3.557
266600.000			-24.899			-3.557
266700.000			-24.899			-3.557
266801.000			-24.898			-3.557
266900.000			-24.899			-3.557
267000.000			-24.899			-3.557
267101.000			-24.898			-3.557
267201.000			-24.897			-3.557
267301.000			-24.897			-3.557
267401.000			-24.896			-3.557
267500.000			-24.896			-3.557
267600.000			-24.896			-3.557
267701.000			-24.895			-3.556
267800.000			-24.895			-3.556
267900.000			-24.895			-3.556
268001.000			-24.894			-3.556
268100.000			-24.894			-3.556
268201.000			-24.894			-3.556
268302.000			-24.893			-3.556
268400.000			-24.893			-3.556
268500.000			-24.892			-3.556
268601.000			-24.892			-3.556
268700.000			-24.893			-3.556
268800.000			-24.893			-3.556
268900.000			-24.892			-3.556
269000.000			-24.892			-3.556
269101.000			-24.891			-3.556
269201.000			-24.891			-3.556
269301.000			-24.891			-3.556
269401.000			-24.890			-3.556
269500.000			-24.890			-3.556
269600.000			-24.889			-3.556
269701.000			-24.889			-3.556
269800.000			-24.889			-3.556
269900.000			-24.889			-3.556
270001.000			-24.888			-3.555
270100.000			-24.889			-3.556
270201.000			-24.888			-3.555
270302.000			-24.889			-3.556
270401.000			-24.888			-3.555
270500.000			-24.887			-3.555
270601.000			-24.887			-3.555
270700.000			-24.886			-3.555
270800.000			-24.886			-3.555
270901.000			-24.886			-3.555
271000.000			-24.886			-3.555
271100.000			-24.886			-3.555
271202.000			-24.884			-3.555
271301.000			-24.885			-3.555
271400.000			-24.886			-3.555
271501.000			-24.885			-3.555
271600.000			-24.884			-3.555
271700.000			-24.884			-3.555
271801.000			-24.885			-3.555
271900.000			-24.885			-3.555
272000.000			-24.885			-3.555
272102.000			-24.885			-3.555
272201.000			-24.884			-3.555
272302.000			-24.883			-3.555
272400.000			-24.883			-3.555
272500.000			-24.883			-3.555
272601.000			-24.882			-3.555
272700.000			-24.883			-3.555
272800.000			-24.883			-3.555
272901.000			-24.883			-3.555
273000.000			-24.882			-3.555
273101.000			-24.881			-3.554
273202.000			-24.881			-3.554
273301.000			-24.881			-3.554
273400.000			-24.881			-3.554
273501.000			-24.880			-3.554
273600.000			-24.880			-3.554
273700.000			-24.880			-3.554
273801.000			-24.880			-3.554
273900.000			-24.880			-3.554
274000.000			-24.880			-3.554
274102.000			-24.879			-3.554
274201.000			-24.879			-3.554
274300.000			-24.880			-3.554
274401.000			-24.879			-3.554
274500.000			-24.879			-3.554
274600.000			-24.879			-3.554
274701.000			-24.878			-3.554
274800.000			-24.878			-3.554
274900.000			-24.876			-3.554
275001.000			-24.876			-3.554
275101.000			-24.877			-3.554
275202.000			-24.877			-3.554
275300.000			-24.877			-3.554
275400.000			-24.876			-3.554
275501.000			-24.875			-3.554
275600.000			-24.875			-3.554
275700.000			-24.875			-3.554
275801.000			-24.876			-3.554
275900.000			-24.876			-3.554
276000.000			-24.876			-3.554
276102.000			-24.875			-3.554
276201.000			-24.875			-3.554
276300.000			-24.875			-3.554
276401.000			-24.874			-3.553
276500.000			-24.875			-3.554
276600.000			-24.875			-3.554
276701.000			-24.873			-3.553
276800.000			-24.873			-3.553
276900.000			-24.874			-3.553
277002.000			-24.873			-3.553
277101.000			-24.872			-3.553
277201.000			-24.871			-3.553
277301.000			-24.871			-3.553
277400.000			-24.872			-3.553
277500.000			-24.873			-3.553
277601.000			-24.873			-3.553
277700.000			-24.871			-3.553
277800.000			-24.870			-3.553
277901.000			-24.871			-3.553
278001.000			-24.870			-3.553
278101.000			-24.871			-3.553
278202.000			-24.871			-3.553
278300.000			-24.870			-3.553
278400.000			-24.870			-3.553
278500.000			-24.869			-3.553
278600.000			-24.869			-3.553
278701.000			-24.869			-3.553
278800.000			-24.868			-3.553
278900.000			-24.867			-3.552
279002.000			-24.867			-3.552
279101.000			-24.868			-3.553
279201.000			-24.868			-3.553
279301.000			-24.867			-3.552
279400.000			-24.866			-3.552
279500.000			-24.866			-3.552
279601.000			-24.867			-3.552
279700.000			-24.867			-3.552
279800.000			-24.866			-3.552
279901.000			-24.867			-3.552
280001.000			-24.867			-3.552
280101.000			-24.866			-3.552
280202.000			-24.866			-3.552
280300.000			-24.865			-3.552
280400.000			-24.865			-3.552
280501.000			-24.865			-3.552
280600.000			-24.865			-3.552
280700.000			-24.864			-3.552
280801.000			-24.863			-3.552
280900.000			-24.863			-3.552
281001.000			-24.864			-3.552
281102.000			-24.864			-3.552
281200.000			-24.862			-3.552
281300.000			-24.863			-3.552
281401.000			-24.863			-3.552
281500.000			-24.861			-3.552
281600.000			-24.861			-3.552
281700.000			-24.862			-3.552
281800.000			-24.862			-3.552
281902.000			-24.861			-3.552
282001.000			-24.861			-3.552
282101.000			-24.863			-3.552
282201.000			-24.861			-3.552
282300.000			-24.860			-3.551
282400.000			-24.860			-3.551
282501.000			-24.860			-3.551
282600.000			-24.859			-3.551
282700.000			-24.859			-3.551
282801.000			-24.858			-3.551
282901.000			-24.859			-3.551
283001.000			-24.860			-3.551
283101.000			-24.859			-3.551
283200.000			-24.858			-3.551
283300.000			-24.857			-3.551
283401.000			-24.857			-3.551
283500.000			-24.858			-3.551
283600.000			-24.858			-3.551
283701.000			-24.857			-3.551
283801.000			-24.858			-3.551
283901.000			-24.858			-3.551
284002.000			-24.858			-3.551
284100.000			-24.857			-3.551
284200.000			-24.858			-3.551
284301.000			-24.857			-3.551
284400.000			-24.856			-3.551
284500.000			-24.856			-3.551
284601.000			-24.856			-3.551
284700.000			-24.856			-3.551
284802.000			-24.857			-3.551
284901.000			-24.856			-3.551
285001.000			-24.855			-3.551
285101.000			-24.854			-3.551
285200.000			-24.854			-3.551
285300.000			-24.855			-3.551
285401.000			-24.855			-3.551
285500.000			-24.855			-3.551
285600.000			-24.855			-3.551
285701.000			-24.854			-3.551
285801.000			-24.855			-3.551
285901.000			-24.855			-3.551
286001.000			-24.854			-3.551
286100.000			-24.854			-3.551
286200.000			-24.855			-3.551
286301.000			-24.855			-3.551
286400.000			-24.854			-3.551
286500.000			-24.852			-3.550
286601.000			-24.851			-3.550
286701.000			-24.852			-3.550
286801.000			-24.852			-3.550
286902.000			-24.852			-3.550
287000.000			-24.851			-3.550
287100.000			-24.851			-3.550
287201.000			-24.852			-3.550
287300.000			-24.850			-3.550
287400.000			-24.850			-3.550
287501.000			-24.850			-3.550
287600.000			-24.848			-3.550
287701.000			-24.849			-3.550
287802.000			-24.850			-3.550
287901.000			-24.849			-3.550
288000.000			-24.849			-3.550
288100.000			-24.848			-3.550
288200.000			-24.848			-3.550
288301.000			-24.848			-3.550
288400.000			-24.847			-3.550
288500.000			-24.847			-3.550
288601.000			-24.848			-3.550
288701.000			-24.847			-3.550
288801.000			-24.846			-3.549
288902.000			-24.846			-3.549
289000.000			-24.846			-3.549
289100.000			-24.846			-3.549
289201.000			-24.846			-3.549
289300.000			-24.846			-3.549
289400.000			-24.845			-3.549
289501.000			-24.845			-3.549
289600.000			-24.845			-3.549
289701.000			-24.845			-3.549
289802.000			-24.844			-3.549
289901.000			-24.843			-3.549
290000.000			-24.844			-3.549
290101.000			-24.843			-3.549
290200.000			-24.842			-3.549
290300.000			-24.843			-3.549
290401.000			-24.843			-3.549
290500.000			-24.843			-3.549
290600.000			-24.843			-3.549
290702.000			-24.842			-3.549
290801.000			-24.842			-3.549
290900.000			-24.842			-3.549
291001.000			-24.841			-3.549
291100.000			-24.842			-3.549
291200.000			-24.841			-3.549
291300.000			-24.841			-3.549
291400.000			-24.841			-3.549
291501.000			-24.841			-3.549
291601.000			-24.841			-3.549
291701.000			-24.841			-3.549
291801.000			-24.840			-3.549
291900.000			-24.840			-3.549
292000.000			-24.840			-3.549
292101.000			-24.840			-3.549
292200.000			-24.838			-3.548
292300.000			-24.840			-3.549
292401.000			-24.840			-3.549
292501.000			-24.839			-3.548
292601.000			-24.839			-3.548
292702.000			-24.839			-3.548
292800.000			-24.839			-3.548
292900.000			-24.839			-3.548
293001.000			-24.838			-3.548
293100.000			-24.838			-3.548
293200.000			-24.838			-3.548
293301.000			-24.838			-3.548
293400.000			-24.838			-3.548
293501.000			-24.837			-3.548
293602.000			-24.837			-3.548
293701.000			-24.836			-3.548
293800.000			-24.834			-3.548
293901.000			-24.835			-3.548
294000.000			-24.835			-3.548
294100.000			-24.835			-3.548
294201.000			-24.834			-3.548
294300.000			-24.835			-3.548
294400.000			-24.835			-3.548
294502.000			-24.834			-3.548
294601.000			-24.834			-3.548
294701.000			-24.834			-3.548
294800.000			-24.834			-3.548
294900.000			-24.833			-3.548
295001.000			-24.834			-3.548
295100.000			-24.833			-3.548
295200.000			-24.831			-3.547
295301.000			-24.832			-3.547
295401.000			-24.832			-3.547
295501.000			-24.832			-3.547
295602.000			-24.831			-3.547
295700.000			-24.831			-3.547
295800.000			-24.831			-3.547
295901.000			-24.831			-3.547
296000.000			-24.831			-3.547
296100.000			-24.830			-3.547
296201.000			-24.830			-3.547
296300.000			-24.830			-3.547
296401.000			-24.829			-3.547
296502.000			-24.829			-3.547
296601.000			-24.830			-3.547
296700.000			-24.829			-3.547
296801.000			-24.828			-3.547
296900.000			-24.828			-3.547
297000.000			-24.829			-3.547
297101.000			-24.829			-3.547
297200.000			-24.828			-3.547
297300.000			-24.828			-3.547
297402.000			-24.826			-3.547
297501.000			-24.826			-3.547
297602.000			-24.827			-3.547
297700.000			-24.827			-3.547
297800.000			-24.826			-3.547
297901.000			-24.827			-3.547
298000.000			-24.827			-3.547
298100.000			-24.827			-3.547
298201.000			-24.826			-3.547
298300.000			-24.825			-3.546
298401.000			-24.825			-3.546
298502.000			-24.825			-3.546
298600.000			-24.825			-3.546
298700.000			-24.825			-3.546
298801.000			-24.824			-3.546
298900.000			-24.823			-3.546
299000.000			-24.824			-3.546
299101.000			-24.823			-3.546
299200.000			-24.823			-3.546
299300.000			-24.824			-3.546
299402.000			-24.824			-3.546
299501.000			-24.823			-3.546
299600.000			-24.823			-3.546
299701.000			-24.822			-3.546
299800.000			-24.821			-3.546
299900.000			-24.821			-3.546
