# Acquired on 20/12/2023 11:03:01 
# SPIDER: Creep_3mm_07714532C-2
# CREEP MEASUREMENT

# time [ms]		force [N]		stiffness [N/mm]
0.000			-5.968			-1.989
101.000			-7.129			-2.376
200.000			-7.944			-2.648
300.000			-7.939			-2.646
401.000			-7.916			-2.639
501.000			-7.898			-2.633
601.000			-7.882			-2.627
701.000			-7.870			-2.623
800.000			-7.859			-2.620
900.000			-7.849			-2.616
1001.000			-7.831			-2.610
1100.000			-7.824			-2.608
1201.000			-7.817			-2.606
1302.000			-7.811			-2.604
1400.000			-7.805			-2.602
1500.000			-7.798			-2.599
1601.000			-7.793			-2.598
1700.000			-7.782			-2.594
1800.000			-7.777			-2.592
1900.000			-7.773			-2.591
2001.000			-7.769			-2.590
2102.000			-7.764			-2.588
2200.000			-7.759			-2.586
2300.000			-7.755			-2.585
2401.000			-7.748			-2.583
2500.000			-7.745			-2.582
2600.000			-7.741			-2.580
2701.000			-7.738			-2.579
2801.000			-7.735			-2.578
2901.000			-7.732			-2.577
3001.000			-7.728			-2.576
3100.000			-7.725			-2.575
3200.000			-7.721			-2.574
3301.000			-7.718			-2.573
3400.000			-7.715			-2.572
3501.000			-7.713			-2.571
3602.000			-7.711			-2.570
3700.000			-7.708			-2.569
3800.000			-7.704			-2.568
3901.000			-7.700			-2.567
4000.000			-7.697			-2.566
4100.000			-7.695			-2.565
4201.000			-7.693			-2.564
4301.000			-7.692			-2.564
4401.000			-7.689			-2.563
4501.000			-7.686			-2.562
4600.000			-7.684			-2.561
4700.000			-7.681			-2.560
4801.000			-7.679			-2.560
4900.000			-7.678			-2.559
5000.000			-7.675			-2.558
5102.000			-7.674			-2.558
5201.000			-7.672			-2.557
5301.000			-7.671			-2.557
5400.000			-7.666			-2.555
5500.000			-7.665			-2.555
5601.000			-7.663			-2.554
5700.000			-7.662			-2.554
5800.000			-7.659			-2.553
5902.000			-7.658			-2.553
6001.000			-7.658			-2.553
6100.000			-7.654			-2.551
6201.000			-7.652			-2.551
6300.000			-7.649			-2.550
6400.000			-7.648			-2.549
6501.000			-7.648			-2.549
6601.000			-7.647			-2.549
6701.000			-7.645			-2.548
6801.000			-7.643			-2.548
6900.000			-7.643			-2.548
7000.000			-7.640			-2.547
7101.000			-7.639			-2.546
7200.000			-7.638			-2.546
7300.000			-7.636			-2.545
7402.000			-7.634			-2.545
7501.000			-7.633			-2.544
7600.000			-7.631			-2.544
7701.000			-7.630			-2.543
7800.000			-7.629			-2.543
7900.000			-7.627			-2.542
8001.000			-7.626			-2.542
8100.000			-7.626			-2.542
8202.000			-7.625			-2.542
8301.000			-7.621			-2.540
8400.000			-7.620			-2.540
8501.000			-7.618			-2.539
8600.000			-7.618			-2.539
8700.000			-7.617			-2.539
8801.000			-7.616			-2.539
8900.000			-7.615			-2.538
9001.000			-7.614			-2.538
9102.000			-7.612			-2.537
9200.000			-7.610			-2.537
9300.000			-7.609			-2.536
9401.000			-7.608			-2.536
9500.000			-7.607			-2.536
9600.000			-7.606			-2.535
9702.000			-7.605			-2.535
9801.000			-7.604			-2.535
9900.000			-7.603			-2.534
10001.000			-7.603			-2.534
10100.000			-7.602			-2.534
10200.000			-7.601			-2.534
10301.000			-7.599			-2.533
10400.000			-7.598			-2.533
10501.000			-7.596			-2.532
10602.000			-7.596			-2.532
10700.000			-7.594			-2.531
10800.000			-7.593			-2.531
10901.000			-7.593			-2.531
11000.000			-7.593			-2.531
11100.000			-7.591			-2.530
11201.000			-7.591			-2.530
11301.000			-7.588			-2.529
11402.000			-7.587			-2.529
11500.000			-7.586			-2.529
11600.000			-7.586			-2.529
11701.000			-7.585			-2.528
11800.000			-7.585			-2.528
11900.000			-7.584			-2.528
12001.000			-7.582			-2.527
12101.000			-7.581			-2.527
12201.000			-7.580			-2.527
12301.000			-7.579			-2.526
12400.000			-7.579			-2.526
12500.000			-7.578			-2.526
12601.000			-7.577			-2.526
12700.000			-7.575			-2.525
12800.000			-7.574			-2.525
12902.000			-7.574			-2.525
13001.000			-7.573			-2.524
13100.000			-7.572			-2.524
13201.000			-7.572			-2.524
13300.000			-7.572			-2.524
13400.000			-7.571			-2.524
13501.000			-7.569			-2.523
13600.000			-7.569			-2.523
13701.000			-7.569			-2.523
13802.000			-7.568			-2.523
13900.000			-7.566			-2.522
14000.000			-7.565			-2.522
14101.000			-7.565			-2.522
14200.000			-7.563			-2.521
14300.000			-7.563			-2.521
14401.000			-7.562			-2.521
14501.000			-7.561			-2.520
14602.000			-7.561			-2.520
14700.000			-7.561			-2.520
14800.000			-7.560			-2.520
14901.000			-7.558			-2.519
15000.000			-7.558			-2.519
15100.000			-7.557			-2.519
15201.000			-7.556			-2.519
15301.000			-7.556			-2.519
15401.000			-7.555			-2.518
15501.000			-7.555			-2.518
15600.000			-7.554			-2.518
15700.000			-7.553			-2.518
15801.000			-7.552			-2.517
15900.000			-7.550			-2.517
16000.000			-7.550			-2.517
16102.000			-7.550			-2.517
16201.000			-7.550			-2.517
16300.000			-7.549			-2.516
16401.000			-7.548			-2.516
16500.000			-7.547			-2.516
16600.000			-7.546			-2.515
16701.000			-7.546			-2.515
16800.000			-7.545			-2.515
16901.000			-7.544			-2.515
17002.000			-7.543			-2.514
17100.000			-7.544			-2.515
17200.000			-7.544			-2.515
17301.000			-7.542			-2.514
17400.000			-7.541			-2.514
17500.000			-7.541			-2.514
17601.000			-7.540			-2.513
17701.000			-7.539			-2.513
17802.000			-7.540			-2.513
17900.000			-7.537			-2.512
18000.000			-7.537			-2.512
18101.000			-7.537			-2.512
18200.000			-7.536			-2.512
18300.000			-7.536			-2.512
18401.000			-7.535			-2.512
18501.000			-7.534			-2.511
18601.000			-7.535			-2.512
18701.000			-7.533			-2.511
18800.000			-7.532			-2.511
18900.000			-7.533			-2.511
19001.000			-7.532			-2.511
19100.000			-7.532			-2.511
19200.000			-7.532			-2.511
19302.000			-7.531			-2.510
19401.000			-7.530			-2.510
19500.000			-7.529			-2.510
19601.000			-7.529			-2.510
19700.000			-7.528			-2.509
19800.000			-7.527			-2.509
19901.000			-7.527			-2.509
20000.000			-7.527			-2.509
20101.000			-7.525			-2.508
20202.000			-7.525			-2.508
20300.000			-7.524			-2.508
20400.000			-7.523			-2.508
20501.000			-7.523			-2.508
20600.000			-7.523			-2.508
20700.000			-7.522			-2.507
20801.000			-7.522			-2.507
20901.000			-7.521			-2.507
21002.000			-7.520			-2.507
21100.000			-7.520			-2.507
21200.000			-7.519			-2.506
21301.000			-7.518			-2.506
21400.000			-7.518			-2.506
21500.000			-7.518			-2.506
21602.000			-7.518			-2.506
21701.000			-7.517			-2.506
21800.000			-7.516			-2.505
21901.000			-7.515			-2.505
22000.000			-7.516			-2.505
22100.000			-7.516			-2.505
22201.000			-7.515			-2.505
22300.000			-7.514			-2.505
22401.000			-7.514			-2.505
22502.000			-7.513			-2.504
22600.000			-7.513			-2.504
22700.000			-7.512			-2.504
22801.000			-7.511			-2.504
22900.000			-7.511			-2.504
23000.000			-7.510			-2.503
23101.000			-7.509			-2.503
23201.000			-7.509			-2.503
23301.000			-7.508			-2.503
23401.000			-7.508			-2.503
23500.000			-7.509			-2.503
23600.000			-7.509			-2.503
23701.000			-7.508			-2.503
23800.000			-7.506			-2.502
23900.000			-7.506			-2.502
24002.000			-7.506			-2.502
24101.000			-7.505			-2.502
24200.000			-7.505			-2.502
24300.000			-7.505			-2.502
24400.000			-7.504			-2.501
24501.000			-7.504			-2.501
24600.000			-7.503			-2.501
24700.000			-7.502			-2.501
24802.000			-7.502			-2.501
24901.000			-7.502			-2.501
25000.000			-7.501			-2.500
25101.000			-7.501			-2.500
25200.000			-7.501			-2.500
25300.000			-7.500			-2.500
25401.000			-7.500			-2.500
25501.000			-7.500			-2.500
25601.000			-7.499			-2.500
25701.000			-7.498			-2.499
25800.000			-7.498			-2.499
25900.000			-7.498			-2.499
26001.000			-7.498			-2.499
26100.000			-7.497			-2.499
26200.000			-7.496			-2.499
26302.000			-7.496			-2.499
26401.000			-7.495			-2.498
26501.000			-7.494			-2.498
26601.000			-7.495			-2.498
26700.000			-7.495			-2.498
26800.000			-7.494			-2.498
26901.000			-7.493			-2.498
27000.000			-7.493			-2.498
27100.000			-7.493			-2.498
27202.000			-7.493			-2.498
27301.000			-7.492			-2.497
27400.000			-7.492			-2.497
27500.000			-7.491			-2.497
27600.000			-7.490			-2.497
27701.000			-7.489			-2.496
27800.000			-7.489			-2.496
27900.000			-7.489			-2.496
28002.000			-7.489			-2.496
28101.000			-7.488			-2.496
28200.000			-7.488			-2.496
28301.000			-7.488			-2.496
28400.000			-7.488			-2.496
28500.000			-7.487			-2.496
28601.000			-7.486			-2.495
28700.000			-7.486			-2.495
28801.000			-7.486			-2.495
28902.000			-7.486			-2.495
29000.000			-7.486			-2.495
29100.000			-7.485			-2.495
29201.000			-7.484			-2.495
29300.000			-7.484			-2.495
29400.000			-7.483			-2.494
29501.000			-7.483			-2.494
29601.000			-7.483			-2.494
29701.000			-7.483			-2.494
29801.000			-7.482			-2.494
29900.000			-7.481			-2.494
30000.000			-7.481			-2.494
30101.000			-7.482			-2.494
30200.000			-7.481			-2.494
30300.000			-7.480			-2.493
30402.000			-7.479			-2.493
30501.000			-7.479			-2.493
30600.000			-7.479			-2.493
30700.000			-7.478			-2.493
30800.000			-7.479			-2.493
30901.000			-7.479			-2.493
31000.000			-7.478			-2.493
31100.000			-7.478			-2.493
31201.000			-7.477			-2.492
31301.000			-7.476			-2.492
31401.000			-7.476			-2.492
31501.000			-7.476			-2.492
31600.000			-7.475			-2.492
31700.000			-7.475			-2.492
31801.000			-7.475			-2.492
31900.000			-7.474			-2.491
32000.000			-7.474			-2.491
32102.000			-7.473			-2.491
32201.000			-7.472			-2.491
32300.000			-7.473			-2.491
32401.000			-7.473			-2.491
32500.000			-7.473			-2.491
32600.000			-7.472			-2.491
32701.000			-7.471			-2.490
32801.000			-7.471			-2.490
32901.000			-7.471			-2.490
33002.000			-7.472			-2.491
33100.000			-7.471			-2.490
33200.000			-7.471			-2.490
33301.000			-7.469			-2.490
33400.000			-7.468			-2.489
33500.000			-7.469			-2.490
33601.000			-7.469			-2.490
33701.000			-7.468			-2.489
33802.000			-7.467			-2.489
33900.000			-7.467			-2.489
34000.000			-7.468			-2.489
34101.000			-7.466			-2.489
34200.000			-7.466			-2.489
34300.000			-7.466			-2.489
34401.000			-7.466			-2.489
34501.000			-7.466			-2.489
34601.000			-7.465			-2.488
34701.000			-7.464			-2.488
34800.000			-7.465			-2.488
34900.000			-7.465			-2.488
35001.000			-7.464			-2.488
35100.000			-7.465			-2.488
35200.000			-7.464			-2.488
35302.000			-7.464			-2.488
35401.000			-7.463			-2.488
35500.000			-7.462			-2.487
35601.000			-7.461			-2.487
35700.000			-7.461			-2.487
35800.000			-7.461			-2.487
35901.000			-7.462			-2.487
36000.000			-7.461			-2.487
36101.000			-7.461			-2.487
36202.000			-7.460			-2.487
36300.000			-7.460			-2.487
36400.000			-7.459			-2.486
36501.000			-7.459			-2.486
36600.000			-7.459			-2.486
36700.000			-7.458			-2.486
36801.000			-7.458			-2.486
36901.000			-7.459			-2.486
37002.000			-7.458			-2.486
37100.000			-7.458			-2.486
37200.000			-7.458			-2.486
37301.000			-7.457			-2.486
37400.000			-7.455			-2.485
37500.000			-7.455			-2.485
37601.000			-7.456			-2.485
37701.000			-7.456			-2.485
37801.000			-7.454			-2.485
37901.000			-7.455			-2.485
38000.000			-7.455			-2.485
38100.000			-7.454			-2.485
38201.000			-7.454			-2.485
38300.000			-7.454			-2.485
38400.000			-7.454			-2.485
38502.000			-7.453			-2.484
38601.000			-7.453			-2.484
38700.000			-7.452			-2.484
38801.000			-7.452			-2.484
38900.000			-7.452			-2.484
39000.000			-7.452			-2.484
39101.000			-7.452			-2.484
39200.000			-7.451			-2.484
39301.000			-7.450			-2.483
39402.000			-7.450			-2.483
39500.000			-7.450			-2.483
39600.000			-7.450			-2.483
39701.000			-7.451			-2.484
39800.000			-7.450			-2.483
39900.000			-7.449			-2.483
40001.000			-7.449			-2.483
40101.000			-7.448			-2.483
40202.000			-7.448			-2.483
40300.000			-7.448			-2.483
40400.000			-7.447			-2.482
40501.000			-7.447			-2.482
40600.000			-7.447			-2.482
40700.000			-7.446			-2.482
40801.000			-7.446			-2.482
40901.000			-7.447			-2.482
41001.000			-7.447			-2.482
41101.000			-7.446			-2.482
41200.000			-7.445			-2.482
41300.000			-7.445			-2.482
41401.000			-7.445			-2.482
41500.000			-7.443			-2.481
41601.000			-7.443			-2.481
41702.000			-7.443			-2.481
41801.000			-7.443			-2.481
41900.000			-7.444			-2.481
42001.000			-7.444			-2.481
42100.000			-7.445			-2.482
42200.000			-7.442			-2.481
42301.000			-7.442			-2.481
42401.000			-7.441			-2.480
42501.000			-7.441			-2.480
42601.000			-7.441			-2.480
42700.000			-7.442			-2.481
42800.000			-7.442			-2.481
42901.000			-7.441			-2.480
43000.000			-7.441			-2.480
43100.000			-7.441			-2.480
43202.000			-7.440			-2.480
43301.000			-7.440			-2.480
43400.000			-7.440			-2.480
43500.000			-7.439			-2.480
43600.000			-7.440			-2.480
43701.000			-7.439			-2.480
43800.000			-7.439			-2.480
43900.000			-7.438			-2.479
44002.000			-7.437			-2.479
44101.000			-7.438			-2.479
44200.000			-7.438			-2.479
44301.000			-7.437			-2.479
44400.000			-7.436			-2.479
44500.000			-7.437			-2.479
44601.000			-7.437			-2.479
44700.000			-7.437			-2.479
44801.000			-7.437			-2.479
44902.000			-7.435			-2.478
45000.000			-7.435			-2.478
45100.000			-7.435			-2.478
45201.000			-7.436			-2.479
45300.000			-7.435			-2.478
45400.000			-7.433			-2.478
45501.000			-7.434			-2.478
45601.000			-7.434			-2.478
45701.000			-7.434			-2.478
45801.000			-7.434			-2.478
45900.000			-7.433			-2.478
46000.000			-7.433			-2.478
46101.000			-7.432			-2.477
46200.000			-7.432			-2.477
46300.000			-7.432			-2.477
46402.000			-7.432			-2.477
46501.000			-7.432			-2.477
46600.000			-7.431			-2.477
46700.000			-7.432			-2.477
46800.000			-7.431			-2.477
46901.000			-7.431			-2.477
47000.000			-7.431			-2.477
47100.000			-7.431			-2.477
47202.000			-7.431			-2.477
47301.000			-7.431			-2.477
47400.000			-7.430			-2.477
47501.000			-7.430			-2.477
47600.000			-7.430			-2.477
47700.000			-7.430			-2.477
47801.000			-7.429			-2.476
47900.000			-7.429			-2.476
48001.000			-7.428			-2.476
48102.000			-7.429			-2.476
48200.000			-7.428			-2.476
48300.000			-7.428			-2.476
48401.000			-7.428			-2.476
48500.000			-7.427			-2.476
48600.000			-7.427			-2.476
48701.000			-7.427			-2.476
48801.000			-7.427			-2.476
48901.000			-7.427			-2.476
49001.000			-7.427			-2.476
49100.000			-7.427			-2.476
49200.000			-7.426			-2.475
49301.000			-7.426			-2.475
49400.000			-7.425			-2.475
49500.000			-7.425			-2.475
49602.000			-7.424			-2.475
49701.000			-7.424			-2.475
49800.000			-7.423			-2.474
49900.000			-7.424			-2.475
50000.000			-7.424			-2.475
50101.000			-7.424			-2.475
50200.000			-7.424			-2.475
50300.000			-7.423			-2.474
50402.000			-7.423			-2.474
50501.000			-7.423			-2.474
50600.000			-7.422			-2.474
50701.000			-7.422			-2.474
50800.000			-7.421			-2.474
50900.000			-7.421			-2.474
51001.000			-7.423			-2.474
51101.000			-7.422			-2.474
51201.000			-7.421			-2.474
51301.000			-7.420			-2.473
51400.000			-7.421			-2.474
51500.000			-7.421			-2.474
51601.000			-7.420			-2.473
51700.000			-7.418			-2.473
51800.000			-7.421			-2.474
51902.000			-7.420			-2.473
52001.000			-7.419			-2.473
52100.000			-7.419			-2.473
52201.000			-7.420			-2.473
52300.000			-7.419			-2.473
52400.000			-7.419			-2.473
52501.000			-7.418			-2.473
52600.000			-7.418			-2.473
52701.000			-7.418			-2.473
52802.000			-7.418			-2.473
52900.000			-7.417			-2.472
53000.000			-7.417			-2.472
53100.000			-7.417			-2.472
53200.000			-7.416			-2.472
53301.000			-7.416			-2.472
53400.000			-7.417			-2.472
53501.000			-7.416			-2.472
53602.000			-7.416			-2.472
53700.000			-7.417			-2.472
53800.000			-7.417			-2.472
53901.000			-7.416			-2.472
54000.000			-7.415			-2.472
54100.000			-7.414			-2.471
54201.000			-7.415			-2.472
54301.000			-7.415			-2.472
54401.000			-7.414			-2.471
54501.000			-7.414			-2.471
54600.000			-7.414			-2.471
54700.000			-7.414			-2.471
54801.000			-7.414			-2.471
54900.000			-7.413			-2.471
55001.000			-7.412			-2.471
55102.000			-7.413			-2.471
55201.000			-7.412			-2.471
55300.000			-7.411			-2.470
55401.000			-7.412			-2.471
55500.000			-7.413			-2.471
55600.000			-7.412			-2.471
55701.000			-7.411			-2.470
55801.000			-7.411			-2.470
55901.000			-7.411			-2.470
56001.000			-7.411			-2.470
56100.000			-7.411			-2.470
56200.000			-7.411			-2.470
56300.000			-7.411			-2.470
56400.000			-7.412			-2.471
56501.000			-7.411			-2.470
56601.000			-7.410			-2.470
56701.000			-7.410			-2.470
56801.000			-7.410			-2.470
56900.000			-7.409			-2.470
57000.000			-7.410			-2.470
57101.000			-7.409			-2.470
57200.000			-7.409			-2.470
57300.000			-7.409			-2.470
57402.000			-7.409			-2.470
57501.000			-7.409			-2.470
57600.000			-7.408			-2.469
57701.000			-7.407			-2.469
57800.000			-7.407			-2.469
57900.000			-7.407			-2.469
58001.000			-7.407			-2.469
58100.000			-7.407			-2.469
58201.000			-7.406			-2.469
58302.000			-7.406			-2.469
58400.000			-7.406			-2.469
58500.000			-7.406			-2.469
58601.000			-7.406			-2.469
58700.000			-7.406			-2.469
58800.000			-7.407			-2.469
58901.000			-7.407			-2.469
59001.000			-7.405			-2.468
59101.000			-7.405			-2.468
59201.000			-7.405			-2.468
59300.000			-7.405			-2.468
59400.000			-7.405			-2.468
59500.000			-7.405			-2.468
59600.000			-7.403			-2.468
59701.000			-7.403			-2.468
59801.000			-7.404			-2.468
59901.000			-7.404			-2.468
60001.000			-7.404			-2.468
60100.000			-7.402			-2.467
60200.000			-7.403			-2.468
60301.000			-7.403			-2.468
60400.000			-7.403			-2.468
60500.000			-7.403			-2.468
60602.000			-7.402			-2.467
60701.000			-7.401			-2.467
60800.000			-7.401			-2.467
60901.000			-7.402			-2.467
61000.000			-7.401			-2.467
61100.000			-7.401			-2.467
61201.000			-7.402			-2.467
61300.000			-7.401			-2.467
61401.000			-7.401			-2.467
61502.000			-7.400			-2.467
61600.000			-7.401			-2.467
61700.000			-7.400			-2.467
61801.000			-7.400			-2.467
61900.000			-7.399			-2.466
62000.000			-7.398			-2.466
62102.000			-7.400			-2.467
62201.000			-7.400			-2.467
62301.000			-7.399			-2.466
62401.000			-7.398			-2.466
62500.000			-7.398			-2.466
62600.000			-7.399			-2.466
62700.000			-7.398			-2.466
62800.000			-7.397			-2.466
62901.000			-7.397			-2.466
63001.000			-7.397			-2.466
63101.000			-7.398			-2.466
63201.000			-7.398			-2.466
63300.000			-7.398			-2.466
63400.000			-7.397			-2.466
63501.000			-7.397			-2.466
63600.000			-7.397			-2.466
63700.000			-7.397			-2.466
63802.000			-7.396			-2.465
63901.000			-7.395			-2.465
64000.000			-7.396			-2.465
64101.000			-7.396			-2.465
64200.000			-7.396			-2.465
64300.000			-7.395			-2.465
64401.000			-7.394			-2.465
64500.000			-7.394			-2.465
64601.000			-7.395			-2.465
64702.000			-7.395			-2.465
64800.000			-7.394			-2.465
64900.000			-7.394			-2.465
65001.000			-7.395			-2.465
65100.000			-7.395			-2.465
65200.000			-7.394			-2.465
65301.000			-7.395			-2.465
65401.000			-7.394			-2.465
65501.000			-7.394			-2.465
65601.000			-7.392			-2.464
65700.000			-7.393			-2.464
65800.000			-7.392			-2.464
65900.000			-7.392			-2.464
66000.000			-7.393			-2.464
66101.000			-7.392			-2.464
66201.000			-7.392			-2.464
66301.000			-7.392			-2.464
66401.000			-7.393			-2.464
66500.000			-7.392			-2.464
66600.000			-7.391			-2.464
66701.000			-7.391			-2.464
66800.000			-7.391			-2.464
66900.000			-7.391			-2.464
67002.000			-7.391			-2.464
67101.000			-7.391			-2.464
67200.000			-7.390			-2.463
67301.000			-7.390			-2.463
67400.000			-7.390			-2.463
67500.000			-7.389			-2.463
67601.000			-7.389			-2.463
67700.000			-7.389			-2.463
67800.000			-7.389			-2.463
67902.000			-7.389			-2.463
68001.000			-7.389			-2.463
68100.000			-7.389			-2.463
68201.000			-7.388			-2.463
68300.000			-7.388			-2.463
68400.000			-7.389			-2.463
68501.000			-7.388			-2.463
68600.000			-7.388			-2.463
68701.000			-7.388			-2.463
68802.000			-7.388			-2.463
68900.000			-7.388			-2.463
69000.000			-7.388			-2.463
69100.000			-7.387			-2.462
69200.000			-7.386			-2.462
69301.000			-7.387			-2.462
69400.000			-7.386			-2.462
69500.000			-7.387			-2.462
69602.000			-7.387			-2.462
69701.000			-7.386			-2.462
69800.000			-7.387			-2.462
69901.000			-7.386			-2.462
70000.000			-7.386			-2.462
70100.000			-7.386			-2.462
70201.000			-7.385			-2.462
70300.000			-7.385			-2.462
70401.000			-7.385			-2.462
70502.000			-7.385			-2.462
70600.000			-7.385			-2.462
70700.000			-7.386			-2.462
70801.000			-7.386			-2.462
70900.000			-7.384			-2.461
71000.000			-7.384			-2.461
71101.000			-7.384			-2.461
71201.000			-7.384			-2.461
71301.000			-7.384			-2.461
71401.000			-7.384			-2.461
71500.000			-7.383			-2.461
71600.000			-7.382			-2.461
71701.000			-7.383			-2.461
71800.000			-7.384			-2.461
71900.000			-7.383			-2.461
72002.000			-7.383			-2.461
72101.000			-7.383			-2.461
72200.000			-7.382			-2.461
72300.000			-7.382			-2.461
72400.000			-7.381			-2.460
72501.000			-7.381			-2.460
72600.000			-7.382			-2.461
72700.000			-7.382			-2.461
72802.000			-7.381			-2.460
72901.000			-7.381			-2.460
73001.000			-7.381			-2.460
73101.000			-7.380			-2.460
73200.000			-7.380			-2.460
73300.000			-7.381			-2.460
73401.000			-7.380			-2.460
73500.000			-7.380			-2.460
73600.000			-7.380			-2.460
73702.000			-7.379			-2.460
73801.000			-7.377			-2.459
73900.000			-7.377			-2.459
74001.000			-7.378			-2.459
74100.000			-7.378			-2.459
74200.000			-7.378			-2.459
74301.000			-7.378			-2.459
74400.000			-7.378			-2.459
74501.000			-7.379			-2.460
74602.000			-7.378			-2.459
74700.000			-7.378			-2.459
74800.000			-7.378			-2.459
74901.000			-7.378			-2.459
75000.000			-7.378			-2.459
75100.000			-7.379			-2.460
75201.000			-7.378			-2.459
75301.000			-7.377			-2.459
75402.000			-7.377			-2.459
75500.000			-7.377			-2.459
75600.000			-7.376			-2.459
75701.000			-7.376			-2.459
75800.000			-7.376			-2.459
75900.000			-7.375			-2.458
76001.000			-7.376			-2.459
76101.000			-7.377			-2.459
76201.000			-7.376			-2.459
76302.000			-7.376			-2.459
76400.000			-7.374			-2.458
76500.000			-7.374			-2.458
76601.000			-7.375			-2.458
76700.000			-7.376			-2.459
76800.000			-7.374			-2.458
76901.000			-7.374			-2.458
77001.000			-7.374			-2.458
77101.000			-7.374			-2.458
77201.000			-7.374			-2.458
77300.000			-7.375			-2.458
77400.000			-7.375			-2.458
77501.000			-7.373			-2.458
77600.000			-7.373			-2.458
77700.000			-7.373			-2.458
77802.000			-7.373			-2.458
77901.000			-7.372			-2.457
78000.000			-7.373			-2.458
78101.000			-7.373			-2.458
78200.000			-7.373			-2.458
78300.000			-7.373			-2.458
78401.000			-7.373			-2.458
78500.000			-7.372			-2.457
78600.000			-7.372			-2.457
78702.000			-7.371			-2.457
78801.000			-7.372			-2.457
78901.000			-7.371			-2.457
79000.000			-7.370			-2.457
79100.000			-7.370			-2.457
79201.000			-7.371			-2.457
79300.000			-7.372			-2.457
79400.000			-7.371			-2.457
79502.000			-7.370			-2.457
79601.000			-7.370			-2.457
79700.000			-7.370			-2.457
79801.000			-7.370			-2.457
79900.000			-7.370			-2.457
80000.000			-7.370			-2.457
80101.000			-7.370			-2.457
80200.000			-7.370			-2.457
80301.000			-7.369			-2.456
80402.000			-7.369			-2.456
80500.000			-7.370			-2.457
80600.000			-7.369			-2.456
80701.000			-7.369			-2.456
80800.000			-7.369			-2.456
80900.000			-7.369			-2.456
81001.000			-7.368			-2.456
81101.000			-7.368			-2.456
81201.000			-7.369			-2.456
81301.000			-7.368			-2.456
81400.000			-7.367			-2.456
81500.000			-7.368			-2.456
81601.000			-7.368			-2.456
81700.000			-7.369			-2.456
81800.000			-7.368			-2.456
81900.000			-7.368			-2.456
82001.000			-7.368			-2.456
82102.000			-7.366			-2.455
82200.000			-7.367			-2.456
82300.000			-7.367			-2.456
82401.000			-7.367			-2.456
82500.000			-7.366			-2.455
82600.000			-7.366			-2.455
82701.000			-7.366			-2.455
82801.000			-7.365			-2.455
82901.000			-7.365			-2.455
83001.000			-7.365			-2.455
83100.000			-7.367			-2.456
83200.000			-7.366			-2.455
83301.000			-7.366			-2.455
83400.000			-7.366			-2.455
83500.000			-7.365			-2.455
83602.000			-7.365			-2.455
83701.000			-7.364			-2.455
83800.000			-7.365			-2.455
83901.000			-7.365			-2.455
84000.000			-7.365			-2.455
84100.000			-7.364			-2.455
84201.000			-7.364			-2.455
84300.000			-7.363			-2.454
84401.000			-7.364			-2.455
84502.000			-7.364			-2.455
84600.000			-7.364			-2.455
84700.000			-7.363			-2.454
84801.000			-7.363			-2.454
84900.000			-7.363			-2.454
85000.000			-7.363			-2.454
85100.000			-7.363			-2.454
85201.000			-7.362			-2.454
85302.000			-7.363			-2.454
85401.000			-7.363			-2.454
85500.000			-7.363			-2.454
85601.000			-7.363			-2.454
85700.000			-7.363			-2.454
85800.000			-7.362			-2.454
85901.000			-7.362			-2.454
86000.000			-7.362			-2.454
86101.000			-7.362			-2.454
86202.000			-7.361			-2.454
86300.000			-7.361			-2.454
86400.000			-7.361			-2.454
86501.000			-7.361			-2.454
86600.000			-7.361			-2.454
86700.000			-7.361			-2.454
86801.000			-7.360			-2.453
86901.000			-7.360			-2.453
87001.000			-7.360			-2.453
87101.000			-7.359			-2.453
87200.000			-7.359			-2.453
87300.000			-7.359			-2.453
87401.000			-7.359			-2.453
87500.000			-7.359			-2.453
87600.000			-7.359			-2.453
87702.000			-7.360			-2.453
87801.000			-7.360			-2.453
87900.000			-7.360			-2.453
88001.000			-7.358			-2.453
88100.000			-7.358			-2.453
88200.000			-7.358			-2.453
88300.000			-7.358			-2.453
88400.000			-7.358			-2.453
88501.000			-7.357			-2.452
88601.000			-7.357			-2.452
88701.000			-7.357			-2.452
88801.000			-7.357			-2.452
88900.000			-7.358			-2.453
89000.000			-7.357			-2.452
89101.000			-7.357			-2.452
89200.000			-7.358			-2.453
89300.000			-7.356			-2.452
89402.000			-7.357			-2.452
89501.000			-7.357			-2.452
89600.000			-7.356			-2.452
89701.000			-7.356			-2.452
89800.000			-7.356			-2.452
89900.000			-7.357			-2.452
90001.000			-7.356			-2.452
90100.000			-7.355			-2.452
90200.000			-7.356			-2.452
90302.000			-7.357			-2.452
90401.000			-7.356			-2.452
90500.000			-7.356			-2.452
90601.000			-7.355			-2.452
90700.000			-7.355			-2.452
90800.000			-7.356			-2.452
90901.000			-7.356			-2.452
91001.000			-7.356			-2.452
91101.000			-7.355			-2.452
91202.000			-7.355			-2.452
91300.000			-7.355			-2.452
91400.000			-7.356			-2.452
91500.000			-7.354			-2.451
91600.000			-7.354			-2.451
91701.000			-7.354			-2.451
91801.000			-7.354			-2.451
91901.000			-7.354			-2.451
92002.000			-7.354			-2.451
92100.000			-7.353			-2.451
92200.000			-7.354			-2.451
92301.000			-7.353			-2.451
92400.000			-7.354			-2.451
92500.000			-7.355			-2.452
92601.000			-7.354			-2.451
92701.000			-7.354			-2.451
92801.000			-7.354			-2.451
92901.000			-7.353			-2.451
93000.000			-7.352			-2.451
93100.000			-7.352			-2.451
93201.000			-7.352			-2.451
93300.000			-7.352			-2.451
93400.000			-7.352			-2.451
93502.000			-7.352			-2.451
93601.000			-7.351			-2.450
93700.000			-7.351			-2.450
93801.000			-7.352			-2.451
93900.000			-7.351			-2.450
94000.000			-7.351			-2.450
94101.000			-7.351			-2.450
94200.000			-7.351			-2.450
94301.000			-7.351			-2.450
94402.000			-7.350			-2.450
94500.000			-7.350			-2.450
94600.000			-7.350			-2.450
94700.000			-7.350			-2.450
94800.000			-7.350			-2.450
94901.000			-7.351			-2.450
95000.000			-7.351			-2.450
95101.000			-7.350			-2.450
95202.000			-7.350			-2.450
95300.000			-7.350			-2.450
95400.000			-7.350			-2.450
95501.000			-7.349			-2.450
95600.000			-7.349			-2.450
95700.000			-7.348			-2.449
95801.000			-7.349			-2.450
95900.000			-7.349			-2.450
96001.000			-7.350			-2.450
96102.000			-7.350			-2.450
96200.000			-7.348			-2.449
96300.000			-7.348			-2.449
96401.000			-7.348			-2.449
96500.000			-7.348			-2.449
96600.000			-7.347			-2.449
96701.000			-7.348			-2.449
96801.000			-7.348			-2.449
96901.000			-7.347			-2.449
97001.000			-7.346			-2.449
97100.000			-7.346			-2.449
97200.000			-7.348			-2.449
97301.000			-7.348			-2.449
97400.000			-7.348			-2.449
97500.000			-7.347			-2.449
97601.000			-7.347			-2.449
97701.000			-7.348			-2.449
97802.000			-7.347			-2.449
97900.000			-7.346			-2.449
98000.000			-7.345			-2.448
98101.000			-7.346			-2.449
98200.000			-7.347			-2.449
98300.000			-7.346			-2.449
98401.000			-7.346			-2.449
98501.000			-7.346			-2.449
98601.000			-7.346			-2.449
98701.000			-7.345			-2.448
98800.000			-7.346			-2.449
98900.000			-7.346			-2.449
99001.000			-7.345			-2.448
99100.000			-7.345			-2.448
99200.000			-7.345			-2.448
99302.000			-7.346			-2.449
99401.000			-7.346			-2.449
99500.000			-7.345			-2.448
99601.000			-7.343			-2.448
99700.000			-7.344			-2.448
99800.000			-7.345			-2.448
99901.000			-7.344			-2.448
100000.000			-7.344			-2.448
100101.000			-7.343			-2.448
100202.000			-7.343			-2.448
100301.000			-7.344			-2.448
100400.000			-7.345			-2.448
100501.000			-7.344			-2.448
100600.000			-7.343			-2.448
100700.000			-7.344			-2.448
100801.000			-7.343			-2.448
100900.000			-7.343			-2.448
101002.000			-7.343			-2.448
101101.000			-7.343			-2.448
101200.000			-7.342			-2.447
101301.000			-7.343			-2.448
101400.000			-7.342			-2.447
101500.000			-7.342			-2.447
101601.000			-7.343			-2.448
101700.000			-7.342			-2.447
101801.000			-7.342			-2.447
101902.000			-7.341			-2.447
102000.000			-7.341			-2.447
102100.000			-7.342			-2.447
102201.000			-7.342			-2.447
102300.000			-7.342			-2.447
102400.000			-7.342			-2.447
102501.000			-7.341			-2.447
102601.000			-7.341			-2.447
102701.000			-7.340			-2.447
102801.000			-7.341			-2.447
102900.000			-7.341			-2.447
103000.000			-7.341			-2.447
103101.000			-7.341			-2.447
103200.000			-7.340			-2.447
103300.000			-7.340			-2.447
103402.000			-7.340			-2.447
103501.000			-7.340			-2.447
103600.000			-7.339			-2.446
103701.000			-7.340			-2.447
103800.000			-7.340			-2.446
103900.000			-7.340			-2.447
104001.000			-7.339			-2.446
104100.000			-7.340			-2.447
104202.000			-7.340			-2.447
104301.000			-7.339			-2.446
104400.000			-7.338			-2.446
104501.000			-7.339			-2.446
104600.000			-7.339			-2.446
104700.000			-7.339			-2.446
104801.000			-7.338			-2.446
104900.000			-7.338			-2.446
105000.000			-7.338			-2.446
105102.000			-7.338			-2.446
105201.000			-7.339			-2.446
105300.000			-7.339			-2.446
105401.000			-7.338			-2.446
105500.000			-7.337			-2.446
105600.000			-7.337			-2.446
105701.000			-7.338			-2.446
105800.000			-7.338			-2.446
105901.000			-7.338			-2.446
106002.000			-7.338			-2.446
106100.000			-7.338			-2.446
106200.000			-7.337			-2.446
106301.000			-7.337			-2.446
106400.000			-7.337			-2.446
106500.000			-7.337			-2.446
106601.000			-7.337			-2.446
106701.000			-7.336			-2.445
106801.000			-7.336			-2.445
106901.000			-7.336			-2.445
107000.000			-7.337			-2.446
107100.000			-7.335			-2.445
107201.000			-7.335			-2.445
107300.000			-7.335			-2.445
107400.000			-7.336			-2.445
107502.000			-7.336			-2.445
107601.000			-7.336			-2.445
107702.000			-7.334			-2.445
107800.000			-7.335			-2.445
107900.000			-7.335			-2.445
108001.000			-7.335			-2.445
108100.000			-7.335			-2.445
108200.000			-7.336			-2.445
108301.000			-7.335			-2.445
108401.000			-7.336			-2.445
108501.000			-7.335			-2.445
108601.000			-7.335			-2.445
108700.000			-7.335			-2.445
108800.000			-7.335			-2.445
108901.000			-7.333			-2.444
109000.000			-7.334			-2.445
109100.000			-7.336			-2.445
109202.000			-7.335			-2.445
109301.000			-7.334			-2.445
109401.000			-7.334			-2.445
109501.000			-7.333			-2.444
109600.000			-7.333			-2.444
109700.000			-7.334			-2.445
109801.000			-7.334			-2.445
109900.000			-7.333			-2.444
110000.000			-7.333			-2.444
110102.000			-7.333			-2.444
110201.000			-7.332			-2.444
110300.000			-7.333			-2.444
110401.000			-7.333			-2.444
110500.000			-7.333			-2.444
110600.000			-7.332			-2.444
110700.000			-7.332			-2.444
110800.000			-7.332			-2.444
110902.000			-7.332			-2.444
111001.000			-7.333			-2.444
111100.000			-7.333			-2.444
111201.000			-7.332			-2.444
111300.000			-7.331			-2.444
111400.000			-7.331			-2.444
111501.000			-7.332			-2.444
111600.000			-7.331			-2.444
111701.000			-7.331			-2.444
111802.000			-7.331			-2.444
111900.000			-7.331			-2.444
112000.000			-7.330			-2.443
112101.000			-7.330			-2.443
112200.000			-7.331			-2.444
112300.000			-7.330			-2.443
112401.000			-7.330			-2.443
112501.000			-7.330			-2.443
112601.000			-7.331			-2.444
112701.000			-7.330			-2.443
112800.000			-7.330			-2.443
112900.000			-7.330			-2.443
113001.000			-7.330			-2.443
113100.000			-7.330			-2.443
113200.000			-7.330			-2.443
113302.000			-7.330			-2.443
113401.000			-7.330			-2.443
113500.000			-7.331			-2.444
113601.000			-7.330			-2.443
113700.000			-7.330			-2.443
113800.000			-7.330			-2.443
113900.000			-7.330			-2.443
114000.000			-7.329			-2.443
114102.000			-7.329			-2.443
114201.000			-7.329			-2.443
114301.000			-7.329			-2.443
114401.000			-7.329			-2.443
114500.000			-7.329			-2.443
114600.000			-7.328			-2.443
114701.000			-7.328			-2.443
114800.000			-7.328			-2.443
114900.000			-7.328			-2.443
115002.000			-7.327			-2.442
115101.000			-7.326			-2.442
115200.000			-7.327			-2.442
115301.000			-7.327			-2.442
115400.000			-7.326			-2.442
115500.000			-7.327			-2.442
115601.000			-7.327			-2.442
115700.000			-7.328			-2.443
115800.000			-7.328			-2.443
115902.000			-7.328			-2.443
116001.000			-7.327			-2.442
116100.000			-7.327			-2.442
116201.000			-7.327			-2.442
116300.000			-7.326			-2.442
116400.000			-7.326			-2.442
116501.000			-7.327			-2.442
116600.000			-7.326			-2.442
116701.000			-7.326			-2.442
116802.000			-7.327			-2.442
116900.000			-7.326			-2.442
117000.000			-7.326			-2.442
117100.000			-7.326			-2.442
117200.000			-7.325			-2.442
117301.000			-7.325			-2.442
117400.000			-7.325			-2.442
117501.000			-7.325			-2.442
117602.000			-7.326			-2.442
117700.000			-7.326			-2.442
117800.000			-7.324			-2.441
117901.000			-7.324			-2.441
118000.000			-7.325			-2.442
118100.000			-7.326			-2.442
118201.000			-7.324			-2.441
118301.000			-7.325			-2.442
118401.000			-7.324			-2.441
118502.000			-7.324			-2.441
118600.000			-7.325			-2.442
118700.000			-7.325			-2.442
118801.000			-7.323			-2.441
118900.000			-7.324			-2.441
119000.000			-7.325			-2.442
119101.000			-7.325			-2.442
119201.000			-7.324			-2.441
119301.000			-7.323			-2.441
119401.000			-7.324			-2.441
119500.000			-7.323			-2.441
119600.000			-7.324			-2.441
119701.000			-7.323			-2.441
119800.000			-7.323			-2.441
119900.000			-7.323			-2.441
120002.000			-7.323			-2.441
120101.000			-7.323			-2.441
120200.000			-7.323			-2.441
120300.000			-7.324			-2.441
120400.000			-7.324			-2.441
120501.000			-7.323			-2.441
120600.000			-7.322			-2.441
120700.000			-7.322			-2.441
120802.000			-7.322			-2.441
120901.000			-7.322			-2.441
121001.000			-7.321			-2.440
121101.000			-7.322			-2.441
121200.000			-7.322			-2.441
121300.000			-7.322			-2.441
121401.000			-7.322			-2.441
121500.000			-7.322			-2.441
121600.000			-7.322			-2.441
121702.000			-7.321			-2.440
121801.000			-7.320			-2.440
121900.000			-7.321			-2.440
122001.000			-7.321			-2.440
122100.000			-7.321			-2.440
122200.000			-7.321			-2.440
122301.000			-7.322			-2.441
122401.000			-7.320			-2.440
122501.000			-7.321			-2.440
122602.000			-7.321			-2.440
122700.000			-7.321			-2.440
122800.000			-7.321			-2.440
122901.000			-7.320			-2.440
123000.000			-7.321			-2.440
123100.000			-7.321			-2.440
123201.000			-7.320			-2.440
123301.000			-7.320			-2.440
123402.000			-7.319			-2.440
123500.000			-7.320			-2.440
123600.000			-7.320			-2.440
123701.000			-7.320			-2.440
123800.000			-7.319			-2.440
123900.000			-7.319			-2.440
124001.000			-7.319			-2.440
124101.000			-7.319			-2.440
124201.000			-7.320			-2.440
124301.000			-7.319			-2.440
124400.000			-7.319			-2.440
124500.000			-7.319			-2.440
124601.000			-7.319			-2.440
124700.000			-7.319			-2.440
124800.000			-7.319			-2.440
124902.000			-7.319			-2.440
125001.000			-7.319			-2.440
125100.000			-7.319			-2.440
125201.000			-7.318			-2.439
125300.000			-7.317			-2.439
125400.000			-7.317			-2.439
125501.000			-7.318			-2.439
125600.000			-7.318			-2.439
125700.000			-7.318			-2.439
125802.000			-7.318			-2.439
125901.000			-7.319			-2.440
126000.000			-7.318			-2.439
126101.000			-7.317			-2.439
126200.000			-7.317			-2.439
126300.000			-7.318			-2.439
126401.000			-7.318			-2.439
126500.000			-7.318			-2.439
126602.000			-7.317			-2.439
126701.000			-7.317			-2.439
126800.000			-7.316			-2.439
126901.000			-7.316			-2.439
127000.000			-7.317			-2.439
127100.000			-7.317			-2.439
127201.000			-7.316			-2.439
127300.000			-7.316			-2.439
127400.000			-7.315			-2.438
127502.000			-7.317			-2.439
127601.000			-7.316			-2.439
127700.000			-7.316			-2.439
127801.000			-7.315			-2.438
127900.000			-7.314			-2.438
128000.000			-7.315			-2.438
128101.000			-7.315			-2.438
128200.000			-7.315			-2.438
128301.000			-7.316			-2.439
128402.000			-7.315			-2.438
128500.000			-7.315			-2.438
128600.000			-7.315			-2.438
128701.000			-7.315			-2.438
128800.000			-7.315			-2.438
128900.000			-7.315			-2.438
129001.000			-7.316			-2.439
129100.000			-7.316			-2.439
129201.000			-7.316			-2.439
129302.000			-7.315			-2.438
129400.000			-7.315			-2.438
129500.000			-7.315			-2.438
129601.000			-7.314			-2.438
129700.000			-7.314			-2.438
129800.000			-7.314			-2.438
129900.000			-7.314			-2.438
130001.000			-7.313			-2.438
130102.000			-7.313			-2.438
130200.000			-7.313			-2.438
130300.000			-7.314			-2.438
130401.000			-7.314			-2.438
130500.000			-7.313			-2.438
130600.000			-7.313			-2.438
130701.000			-7.313			-2.438
130801.000			-7.313			-2.438
130901.000			-7.313			-2.438
131001.000			-7.312			-2.437
131100.000			-7.313			-2.438
131200.000			-7.313			-2.438
131301.000			-7.314			-2.438
131400.000			-7.314			-2.438
131500.000			-7.313			-2.438
131601.000			-7.311			-2.437
131701.000			-7.311			-2.437
131801.000			-7.312			-2.437
131901.000			-7.313			-2.438
132000.000			-7.313			-2.438
132100.000			-7.312			-2.437
132201.000			-7.312			-2.437
132300.000			-7.311			-2.437
132400.000			-7.312			-2.437
132501.000			-7.312			-2.437
132601.000			-7.311			-2.437
132701.000			-7.312			-2.437
132801.000			-7.312			-2.437
132900.000			-7.311			-2.437
133000.000			-7.312			-2.437
133100.000			-7.311			-2.437
133200.000			-7.311			-2.437
133301.000			-7.311			-2.437
133401.000			-7.311			-2.437
133501.000			-7.310			-2.437
133602.000			-7.311			-2.437
133700.000			-7.310			-2.437
133800.000			-7.309			-2.436
133901.000			-7.310			-2.437
134000.000			-7.311			-2.437
134100.000			-7.311			-2.437
134201.000			-7.310			-2.437
134301.000			-7.310			-2.437
134401.000			-7.310			-2.437
134501.000			-7.309			-2.436
134600.000			-7.309			-2.436
134700.000			-7.309			-2.436
134801.000			-7.309			-2.436
134900.000			-7.309			-2.436
135000.000			-7.309			-2.436
135101.000			-7.310			-2.437
135201.000			-7.309			-2.436
135301.000			-7.309			-2.436
135402.000			-7.309			-2.436
135500.000			-7.308			-2.436
135600.000			-7.308			-2.436
135701.000			-7.309			-2.436
135800.000			-7.308			-2.436
135900.000			-7.309			-2.436
136001.000			-7.309			-2.436
136101.000			-7.308			-2.436
136202.000			-7.308			-2.436
136301.000			-7.308			-2.436
136400.000			-7.308			-2.436
136501.000			-7.308			-2.436
136600.000			-7.308			-2.436
136700.000			-7.307			-2.436
136801.000			-7.308			-2.436
136900.000			-7.308			-2.436
137000.000			-7.308			-2.436
137102.000			-7.308			-2.436
137201.000			-7.307			-2.436
137300.000			-7.306			-2.435
137401.000			-7.308			-2.436
137500.000			-7.307			-2.436
137600.000			-7.307			-2.436
137701.000			-7.307			-2.436
137800.000			-7.307			-2.436
137900.000			-7.307			-2.436
138002.000			-7.306			-2.435
138101.000			-7.306			-2.435
138200.000			-7.306			-2.435
138301.000			-7.307			-2.436
138400.000			-7.307			-2.436
138500.000			-7.306			-2.435
138601.000			-7.306			-2.435
138700.000			-7.306			-2.435
138800.000			-7.306			-2.435
138902.000			-7.306			-2.435
139001.000			-7.307			-2.436
139100.000			-7.305			-2.435
139201.000			-7.306			-2.435
139300.000			-7.306			-2.435
139400.000			-7.306			-2.435
139500.000			-7.305			-2.435
139600.000			-7.305			-2.435
139701.000			-7.305			-2.435
139801.000			-7.305			-2.435
139901.000			-7.305			-2.435
140002.000			-7.305			-2.435
140100.000			-7.304			-2.435
140200.000			-7.305			-2.435
140301.000			-7.304			-2.435
140400.000			-7.303			-2.434
140500.000			-7.304			-2.435
140601.000			-7.304			-2.435
140701.000			-7.305			-2.435
140801.000			-7.305			-2.435
140901.000			-7.306			-2.435
141000.000			-7.304			-2.435
141100.000			-7.304			-2.435
141201.000			-7.304			-2.435
141300.000			-7.303			-2.434
141400.000			-7.304			-2.435
141501.000			-7.304			-2.435
141601.000			-7.304			-2.435
141701.000			-7.303			-2.434
141801.000			-7.303			-2.434
141900.000			-7.303			-2.434
142000.000			-7.303			-2.434
142101.000			-7.304			-2.435
142200.000			-7.304			-2.435
142300.000			-7.303			-2.434
142401.000			-7.303			-2.434
142501.000			-7.302			-2.434
142602.000			-7.302			-2.434
142700.000			-7.302			-2.434
142800.000			-7.303			-2.434
142901.000			-7.303			-2.434
143000.000			-7.302			-2.434
143100.000			-7.301			-2.434
143201.000			-7.302			-2.434
143300.000			-7.302			-2.434
143401.000			-7.302			-2.434
143502.000			-7.302			-2.434
143600.000			-7.302			-2.434
143700.000			-7.301			-2.434
143801.000			-7.301			-2.434
143900.000			-7.301			-2.434
144000.000			-7.301			-2.434
144101.000			-7.301			-2.434
144200.000			-7.302			-2.434
144301.000			-7.301			-2.434
144402.000			-7.302			-2.434
144500.000			-7.300			-2.433
144600.000			-7.300			-2.433
144701.000			-7.300			-2.433
144800.000			-7.300			-2.433
144900.000			-7.300			-2.433
145001.000			-7.301			-2.434
145101.000			-7.300			-2.433
145201.000			-7.300			-2.433
145302.000			-7.300			-2.433
145400.000			-7.300			-2.433
145500.000			-7.300			-2.433
145601.000			-7.299			-2.433
145700.000			-7.299			-2.433
145800.000			-7.300			-2.433
145900.000			-7.299			-2.433
146000.000			-7.299			-2.433
146102.000			-7.299			-2.433
146201.000			-7.300			-2.433
146300.000			-7.299			-2.433
146401.000			-7.300			-2.433
146500.000			-7.300			-2.433
146600.000			-7.300			-2.433
146701.000			-7.299			-2.433
146800.000			-7.299			-2.433
146900.000			-7.300			-2.433
147001.000			-7.299			-2.433
147101.000			-7.299			-2.433
147201.000			-7.298			-2.433
147301.000			-7.299			-2.433
147400.000			-7.299			-2.433
147500.000			-7.299			-2.433
147601.000			-7.299			-2.433
147700.000			-7.298			-2.433
147800.000			-7.299			-2.433
147901.000			-7.298			-2.433
148001.000			-7.298			-2.433
148101.000			-7.298			-2.433
148202.000			-7.298			-2.433
148300.000			-7.299			-2.433
148400.000			-7.298			-2.433
148501.000			-7.298			-2.433
148600.000			-7.298			-2.433
148700.000			-7.298			-2.433
148801.000			-7.298			-2.433
148900.000			-7.298			-2.433
149002.000			-7.298			-2.433
149101.000			-7.297			-2.432
149201.000			-7.298			-2.433
149301.000			-7.298			-2.433
149400.000			-7.296			-2.432
149500.000			-7.296			-2.432
149601.000			-7.296			-2.432
149700.000			-7.298			-2.433
149800.000			-7.297			-2.432
149901.000			-7.296			-2.432
150001.000			-7.297			-2.432
150101.000			-7.296			-2.432
150201.000			-7.295			-2.432
150300.000			-7.296			-2.432
150400.000			-7.296			-2.432
150501.000			-7.296			-2.432
150600.000			-7.296			-2.432
150700.000			-7.296			-2.432
150801.000			-7.296			-2.432
150901.000			-7.296			-2.432
151001.000			-7.296			-2.432
151101.000			-7.294			-2.431
151200.000			-7.295			-2.432
151300.000			-7.296			-2.432
151401.000			-7.296			-2.432
151500.000			-7.295			-2.432
151600.000			-7.295			-2.432
151701.000			-7.295			-2.432
151801.000			-7.295			-2.432
151901.000			-7.294			-2.431
152002.000			-7.295			-2.432
152100.000			-7.295			-2.432
152200.000			-7.295			-2.432
152300.000			-7.295			-2.432
152400.000			-7.294			-2.431
152501.000			-7.294			-2.431
152600.000			-7.295			-2.432
152700.000			-7.295			-2.432
152802.000			-7.295			-2.432
152901.000			-7.295			-2.432
153000.000			-7.295			-2.432
153101.000			-7.294			-2.431
153200.000			-7.294			-2.431
153300.000			-7.293			-2.431
153401.000			-7.293			-2.431
153500.000			-7.293			-2.431
153600.000			-7.294			-2.431
153702.000			-7.294			-2.431
153801.000			-7.293			-2.431
153900.000			-7.294			-2.431
154001.000			-7.293			-2.431
154100.000			-7.293			-2.431
154200.000			-7.293			-2.431
154301.000			-7.294			-2.431
154400.000			-7.294			-2.431
154500.000			-7.293			-2.431
154602.000			-7.292			-2.431
154701.000			-7.293			-2.431
154801.000			-7.293			-2.431
154901.000			-7.292			-2.431
155000.000			-7.293			-2.431
155100.000			-7.293			-2.431
155201.000			-7.293			-2.431
155300.000			-7.293			-2.431
155400.000			-7.292			-2.431
155500.000			-7.293			-2.431
155601.000			-7.293			-2.431
155702.000			-7.291			-2.430
155800.000			-7.291			-2.430
155900.000			-7.291			-2.430
156001.000			-7.292			-2.431
156100.000			-7.292			-2.431
156200.000			-7.292			-2.431
156301.000			-7.292			-2.431
156400.000			-7.292			-2.431
156501.000			-7.292			-2.431
156602.000			-7.292			-2.431
156701.000			-7.292			-2.431
156800.000			-7.291			-2.430
156901.000			-7.291			-2.430
157000.000			-7.292			-2.431
157100.000			-7.291			-2.430
157201.000			-7.291			-2.430
157300.000			-7.291			-2.430
157400.000			-7.291			-2.430
157502.000			-7.290			-2.430
157601.000			-7.290			-2.430
157700.000			-7.291			-2.430
157801.000			-7.289			-2.430
157900.000			-7.290			-2.430
158000.000			-7.291			-2.430
158101.000			-7.291			-2.430
158200.000			-7.291			-2.430
158300.000			-7.290			-2.430
158402.000			-7.290			-2.430
158501.000			-7.289			-2.430
158602.000			-7.290			-2.430
158700.000			-7.290			-2.430
158800.000			-7.289			-2.430
158901.000			-7.290			-2.430
159000.000			-7.291			-2.430
159100.000			-7.290			-2.430
159201.000			-7.289			-2.430
159300.000			-7.290			-2.430
159401.000			-7.289			-2.430
159502.000			-7.289			-2.430
159601.000			-7.290			-2.430
159700.000			-7.290			-2.430
159801.000			-7.289			-2.430
159900.000			-7.288			-2.429
160000.000			-7.289			-2.430
160101.000			-7.289			-2.430
160200.000			-7.289			-2.430
160300.000			-7.289			-2.430
160402.000			-7.289			-2.430
160501.000			-7.289			-2.430
160600.000			-7.289			-2.430
160701.000			-7.288			-2.429
160800.000			-7.289			-2.430
160900.000			-7.288			-2.429
161001.000			-7.288			-2.429
161100.000			-7.288			-2.429
161200.000			-7.288			-2.429
161302.000			-7.288			-2.429
161401.000			-7.287			-2.429
161501.000			-7.288			-2.429
161601.000			-7.288			-2.429
161700.000			-7.288			-2.429
161800.000			-7.288			-2.429
161900.000			-7.288			-2.429
162000.000			-7.288			-2.429
162101.000			-7.287			-2.429
162200.000			-7.287			-2.429
162301.000			-7.287			-2.429
162402.000			-7.287			-2.429
162500.000			-7.288			-2.429
162600.000			-7.288			-2.429
162701.000			-7.287			-2.429
162800.000			-7.287			-2.429
162900.000			-7.287			-2.429
163001.000			-7.287			-2.429
163100.000			-7.287			-2.429
163201.000			-7.287			-2.429
163302.000			-7.287			-2.429
163401.000			-7.287			-2.429
163500.000			-7.286			-2.429
163601.000			-7.286			-2.429
163700.000			-7.286			-2.429
163800.000			-7.286			-2.429
163901.000			-7.287			-2.429
164000.000			-7.287			-2.429
164100.000			-7.285			-2.428
164202.000			-7.286			-2.429
164301.000			-7.286			-2.429
164400.000			-7.287			-2.429
164501.000			-7.286			-2.429
164600.000			-7.285			-2.428
164700.000			-7.286			-2.429
164801.000			-7.287			-2.429
164900.000			-7.286			-2.429
165000.000			-7.286			-2.429
165102.000			-7.286			-2.429
165201.000			-7.287			-2.429
165302.000			-7.286			-2.429
165400.000			-7.285			-2.428
165500.000			-7.285			-2.428
165601.000			-7.285			-2.428
165700.000			-7.285			-2.428
165800.000			-7.285			-2.428
165901.000			-7.285			-2.428
166000.000			-7.285			-2.428
166101.000			-7.285			-2.428
166202.000			-7.285			-2.428
166301.000			-7.286			-2.429
166400.000			-7.286			-2.429
166501.000			-7.285			-2.428
166600.000			-7.284			-2.428
166700.000			-7.285			-2.428
166801.000			-7.285			-2.428
166900.000			-7.285			-2.428
167000.000			-7.284			-2.428
167102.000			-7.284			-2.428
167201.000			-7.284			-2.428
167300.000			-7.285			-2.428
167401.000			-7.285			-2.428
167500.000			-7.285			-2.428
167600.000			-7.285			-2.428
167701.000			-7.285			-2.428
167800.000			-7.284			-2.428
167900.000			-7.285			-2.428
168002.000			-7.283			-2.428
168101.000			-7.283			-2.428
168202.000			-7.284			-2.428
168300.000			-7.284			-2.428
168400.000			-7.283			-2.428
168501.000			-7.283			-2.428
168600.000			-7.283			-2.428
168700.000			-7.283			-2.428
168801.000			-7.282			-2.427
168900.000			-7.282			-2.427
169001.000			-7.283			-2.428
169102.000			-7.282			-2.427
169200.000			-7.283			-2.428
169300.000			-7.284			-2.428
169401.000			-7.284			-2.428
169500.000			-7.282			-2.427
169600.000			-7.281			-2.427
169701.000			-7.281			-2.427
169800.000			-7.281			-2.427
169901.000			-7.281			-2.427
170002.000			-7.282			-2.427
170101.000			-7.281			-2.427
170200.000			-7.282			-2.427
170301.000			-7.281			-2.427
170400.000			-7.281			-2.427
170500.000			-7.281			-2.427
170601.000			-7.282			-2.427
170700.000			-7.282			-2.427
170801.000			-7.282			-2.427
170902.000			-7.282			-2.427
171001.000			-7.282			-2.427
171100.000			-7.282			-2.427
171201.000			-7.282			-2.427
171300.000			-7.281			-2.427
171400.000			-7.281			-2.427
171500.000			-7.280			-2.427
171600.000			-7.280			-2.427
171702.000			-7.282			-2.427
171801.000			-7.282			-2.427
171901.000			-7.281			-2.427
172001.000			-7.280			-2.427
172100.000			-7.280			-2.427
172200.000			-7.281			-2.427
172301.000			-7.281			-2.427
172400.000			-7.280			-2.427
172500.000			-7.280			-2.427
172602.000			-7.280			-2.427
172701.000			-7.280			-2.427
172801.000			-7.281			-2.427
172901.000			-7.281			-2.427
173000.000			-7.280			-2.427
173100.000			-7.281			-2.427
173201.000			-7.280			-2.427
173300.000			-7.280			-2.427
173400.000			-7.280			-2.427
173502.000			-7.279			-2.426
173601.000			-7.280			-2.427
173701.000			-7.280			-2.427
173801.000			-7.281			-2.427
173900.000			-7.280			-2.427
174000.000			-7.280			-2.427
174101.000			-7.280			-2.427
174200.000			-7.280			-2.427
174300.000			-7.280			-2.427
174401.000			-7.279			-2.426
174501.000			-7.279			-2.426
174602.000			-7.279			-2.426
174701.000			-7.280			-2.427
174800.000			-7.279			-2.426
174901.000			-7.279			-2.426
175000.000			-7.279			-2.426
175100.000			-7.280			-2.427
175201.000			-7.280			-2.427
175300.000			-7.279			-2.426
175400.000			-7.279			-2.426
175502.000			-7.279			-2.426
175601.000			-7.279			-2.426
175701.000			-7.279			-2.426
175801.000			-7.278			-2.426
175900.000			-7.278			-2.426
176000.000			-7.278			-2.426
176101.000			-7.279			-2.426
176200.000			-7.278			-2.426
176300.000			-7.279			-2.426
176401.000			-7.278			-2.426
176501.000			-7.277			-2.426
176601.000			-7.277			-2.426
176701.000			-7.278			-2.426
176800.000			-7.279			-2.426
176900.000			-7.277			-2.426
177001.000			-7.277			-2.426
177100.000			-7.276			-2.425
177200.000			-7.277			-2.426
177301.000			-7.278			-2.426
177401.000			-7.278			-2.426
177501.000			-7.277			-2.426
177602.000			-7.278			-2.426
177700.000			-7.277			-2.426
177800.000			-7.276			-2.425
177900.000			-7.276			-2.425
178000.000			-7.277			-2.426
178101.000			-7.277			-2.426
178200.000			-7.276			-2.425
178300.000			-7.277			-2.426
178402.000			-7.277			-2.426
178501.000			-7.277			-2.426
178601.000			-7.277			-2.426
178701.000			-7.276			-2.425
178800.000			-7.275			-2.425
178900.000			-7.276			-2.425
179001.000			-7.276			-2.425
179100.000			-7.276			-2.425
179200.000			-7.276			-2.425
179301.000			-7.277			-2.426
179401.000			-7.277			-2.426
179501.000			-7.276			-2.425
179602.000			-7.276			-2.425
179700.000			-7.276			-2.425
179800.000			-7.274			-2.425
179901.000			-7.274			-2.425
180000.000			-7.275			-2.425
180100.000			-7.275			-2.425
180201.000			-7.274			-2.425
180300.000			-7.275			-2.425
180401.000			-7.275			-2.425
180502.000			-7.275			-2.425
180600.000			-7.275			-2.425
180700.000			-7.276			-2.425
180801.000			-7.275			-2.425
180900.000			-7.276			-2.425
181000.000			-7.276			-2.425
181100.000			-7.275			-2.425
181200.000			-7.274			-2.425
181302.000			-7.274			-2.425
181401.000			-7.275			-2.425
181501.000			-7.275			-2.425
181601.000			-7.274			-2.425
181700.000			-7.274			-2.425
181800.000			-7.274			-2.425
181901.000			-7.274			-2.425
182000.000			-7.274			-2.425
182100.000			-7.274			-2.425
182201.000			-7.275			-2.425
182301.000			-7.273			-2.424
182401.000			-7.273			-2.424
182501.000			-7.273			-2.424
182600.000			-7.273			-2.424
182700.000			-7.273			-2.424
182801.000			-7.274			-2.425
182900.000			-7.274			-2.425
183000.000			-7.273			-2.424
183101.000			-7.273			-2.424
183201.000			-7.273			-2.424
183301.000			-7.273			-2.424
183401.000			-7.273			-2.424
183500.000			-7.273			-2.424
183600.000			-7.273			-2.424
183701.000			-7.273			-2.424
183800.000			-7.273			-2.424
183900.000			-7.273			-2.424
184001.000			-7.273			-2.424
184101.000			-7.273			-2.424
184202.000			-7.272			-2.424
184301.000			-7.272			-2.424
184400.000			-7.273			-2.424
184501.000			-7.273			-2.424
184600.000			-7.274			-2.425
184700.000			-7.273			-2.424
184801.000			-7.273			-2.424
184900.000			-7.272			-2.424
185000.000			-7.272			-2.424
185102.000			-7.272			-2.424
185201.000			-7.272			-2.424
185300.000			-7.272			-2.424
185401.000			-7.272			-2.424
185500.000			-7.272			-2.424
185600.000			-7.271			-2.424
185701.000			-7.272			-2.424
185800.000			-7.271			-2.424
185900.000			-7.271			-2.424
186002.000			-7.271			-2.424
186101.000			-7.271			-2.424
186201.000			-7.270			-2.423
186301.000			-7.271			-2.424
186400.000			-7.271			-2.424
186500.000			-7.271			-2.424
186601.000			-7.271			-2.424
186700.000			-7.271			-2.424
186800.000			-7.270			-2.423
186901.000			-7.271			-2.424
187001.000			-7.270			-2.423
187101.000			-7.270			-2.423
187201.000			-7.271			-2.424
187300.000			-7.271			-2.424
187400.000			-7.271			-2.424
187500.000			-7.271			-2.424
187600.000			-7.271			-2.424
187701.000			-7.270			-2.423
187800.000			-7.271			-2.424
187901.000			-7.270			-2.423
188002.000			-7.270			-2.423
188101.000			-7.270			-2.423
188200.000			-7.269			-2.423
188301.000			-7.270			-2.423
188400.000			-7.270			-2.423
188500.000			-7.269			-2.423
188601.000			-7.270			-2.423
188700.000			-7.270			-2.423
188800.000			-7.270			-2.423
188902.000			-7.270			-2.423
189001.000			-7.270			-2.423
189101.000			-7.269			-2.423
189201.000			-7.269			-2.423
189300.000			-7.269			-2.423
189400.000			-7.270			-2.423
189501.000			-7.269			-2.423
189600.000			-7.268			-2.423
189700.000			-7.269			-2.423
189801.000			-7.269			-2.423
189901.000			-7.269			-2.423
190001.000			-7.268			-2.423
190101.000			-7.269			-2.423
190200.000			-7.268			-2.423
190300.000			-7.268			-2.423
190401.000			-7.269			-2.423
190500.000			-7.269			-2.423
190600.000			-7.270			-2.423
190700.000			-7.269			-2.423
190801.000			-7.269			-2.423
190902.000			-7.268			-2.423
191001.000			-7.267			-2.422
191100.000			-7.268			-2.423
191201.000			-7.269			-2.423
191300.000			-7.268			-2.423
191400.000			-7.268			-2.423
191501.000			-7.268			-2.423
191600.000			-7.269			-2.423
191700.000			-7.268			-2.423
191802.000			-7.268			-2.423
191901.000			-7.267			-2.422
192000.000			-7.267			-2.422
192101.000			-7.267			-2.422
192200.000			-7.267			-2.422
192300.000			-7.268			-2.423
192401.000			-7.268			-2.423
192500.000			-7.267			-2.422
192600.000			-7.267			-2.422
192702.000			-7.267			-2.422
192801.000			-7.267			-2.422
192901.000			-7.268			-2.423
193001.000			-7.267			-2.422
193100.000			-7.266			-2.422
193200.000			-7.266			-2.422
193301.000			-7.267			-2.422
193400.000			-7.267			-2.422
193500.000			-7.266			-2.422
193601.000			-7.266			-2.422
193701.000			-7.267			-2.422
193802.000			-7.267			-2.422
193901.000			-7.266			-2.422
194000.000			-7.266			-2.422
194101.000			-7.267			-2.422
194200.000			-7.268			-2.423
194300.000			-7.267			-2.422
194401.000			-7.266			-2.422
194500.000			-7.264			-2.421
194600.000			-7.265			-2.422
194702.000			-7.265			-2.422
194801.000			-7.265			-2.422
194900.000			-7.265			-2.422
195001.000			-7.265			-2.422
195100.000			-7.266			-2.422
195200.000			-7.266			-2.422
195301.000			-7.266			-2.422
195400.000			-7.267			-2.422
195500.000			-7.265			-2.422
195602.000			-7.266			-2.422
195701.000			-7.267			-2.422
195801.000			-7.265			-2.422
195901.000			-7.264			-2.421
196000.000			-7.265			-2.422
196100.000			-7.265			-2.422
196201.000			-7.264			-2.421
196300.000			-7.265			-2.422
196400.000			-7.265			-2.422
196501.000			-7.265			-2.422
196601.000			-7.267			-2.422
196701.000			-7.265			-2.422
196802.000			-7.264			-2.421
196900.000			-7.264			-2.421
197000.000			-7.265			-2.422
197100.000			-7.265			-2.422
197200.000			-7.264			-2.421
197301.000			-7.264			-2.421
197400.000			-7.264			-2.421
197500.000			-7.264			-2.421
197602.000			-7.264			-2.421
197701.000			-7.265			-2.422
197801.000			-7.264			-2.421
197901.000			-7.264			-2.421
198000.000			-7.263			-2.421
198100.000			-7.264			-2.421
198201.000			-7.264			-2.421
198300.000			-7.265			-2.422
198400.000			-7.265			-2.422
198502.000			-7.264			-2.421
198601.000			-7.264			-2.421
198701.000			-7.265			-2.422
198801.000			-7.265			-2.422
198900.000			-7.263			-2.421
199000.000			-7.263			-2.421
199101.000			-7.263			-2.421
199200.000			-7.263			-2.421
199300.000			-7.264			-2.421
199401.000			-7.263			-2.421
199501.000			-7.263			-2.421
199601.000			-7.263			-2.421
199702.000			-7.264			-2.421
199800.000			-7.263			-2.421
199900.000			-7.263			-2.421
200001.000			-7.262			-2.421
200100.000			-7.263			-2.421
200200.000			-7.262			-2.421
200300.000			-7.262			-2.421
200400.000			-7.263			-2.421
200502.000			-7.263			-2.421
200601.000			-7.263			-2.421
200700.000			-7.263			-2.421
200801.000			-7.264			-2.421
200900.000			-7.264			-2.421
201000.000			-7.263			-2.421
201101.000			-7.263			-2.421
201200.000			-7.262			-2.421
201300.000			-7.262			-2.421
201402.000			-7.263			-2.421
201501.000			-7.262			-2.421
201600.000			-7.262			-2.421
201701.000			-7.263			-2.421
201800.000			-7.262			-2.421
201900.000			-7.262			-2.421
202001.000			-7.262			-2.421
202100.000			-7.262			-2.421
202200.000			-7.262			-2.421
202302.000			-7.262			-2.421
202401.000			-7.263			-2.421
202500.000			-7.261			-2.420
202601.000			-7.262			-2.421
202700.000			-7.262			-2.421
202800.000			-7.260			-2.420
202901.000			-7.260			-2.420
203000.000			-7.261			-2.420
203100.000			-7.261			-2.420
203202.000			-7.262			-2.421
203301.000			-7.262			-2.421
203400.000			-7.261			-2.420
203500.000			-7.261			-2.420
203600.000			-7.261			-2.420
203701.000			-7.260			-2.420
203800.000			-7.260			-2.420
203900.000			-7.261			-2.420
204001.000			-7.261			-2.420
204101.000			-7.261			-2.420
204201.000			-7.261			-2.420
204301.000			-7.260			-2.420
204400.000			-7.260			-2.420
204500.000			-7.259			-2.420
204601.000			-7.260			-2.420
204700.000			-7.260			-2.420
204800.000			-7.261			-2.420
204901.000			-7.261			-2.420
205001.000			-7.260			-2.420
205101.000			-7.260			-2.420
205201.000			-7.260			-2.420
205300.000			-7.260			-2.420
205400.000			-7.260			-2.420
205501.000			-7.260			-2.420
205600.000			-7.259			-2.420
205700.000			-7.259			-2.420
205801.000			-7.260			-2.420
205901.000			-7.260			-2.420
206001.000			-7.260			-2.420
206101.000			-7.260			-2.420
206200.000			-7.259			-2.420
206300.000			-7.259			-2.420
206401.000			-7.259			-2.420
206500.000			-7.259			-2.420
206600.000			-7.259			-2.420
206700.000			-7.258			-2.419
206801.000			-7.259			-2.420
206902.000			-7.259			-2.420
207001.000			-7.259			-2.420
207100.000			-7.258			-2.419
207201.000			-7.259			-2.420
207300.000			-7.259			-2.420
207400.000			-7.259			-2.420
207501.000			-7.259			-2.420
207600.000			-7.258			-2.419
207701.000			-7.259			-2.420
207802.000			-7.258			-2.419
207901.000			-7.259			-2.420
208000.000			-7.258			-2.419
208101.000			-7.259			-2.420
208200.000			-7.259			-2.420
208300.000			-7.258			-2.419
208401.000			-7.258			-2.419
208500.000			-7.257			-2.419
208600.000			-7.257			-2.419
208702.000			-7.257			-2.419
208801.000			-7.257			-2.419
208900.000			-7.258			-2.419
209001.000			-7.258			-2.419
209100.000			-7.258			-2.419
209200.000			-7.258			-2.419
209301.000			-7.257			-2.419
209400.000			-7.257			-2.419
209500.000			-7.257			-2.419
209602.000			-7.257			-2.419
209701.000			-7.258			-2.419
209802.000			-7.259			-2.420
209900.000			-7.258			-2.419
210000.000			-7.257			-2.419
210101.000			-7.258			-2.419
210200.000			-7.257			-2.419
210300.000			-7.256			-2.419
210401.000			-7.256			-2.419
210501.000			-7.256			-2.419
210601.000			-7.258			-2.419
210702.000			-7.256			-2.419
210800.000			-7.256			-2.419
210900.000			-7.256			-2.419
211001.000			-7.256			-2.419
211100.000			-7.256			-2.419
211200.000			-7.256			-2.419
211301.000			-7.256			-2.419
211401.000			-7.255			-2.418
211501.000			-7.256			-2.419
211602.000			-7.257			-2.419
211700.000			-7.256			-2.419
211800.000			-7.256			-2.419
211901.000			-7.256			-2.419
212000.000			-7.257			-2.419
212100.000			-7.256			-2.419
212201.000			-7.255			-2.418
212301.000			-7.255			-2.418
212401.000			-7.255			-2.418
212501.000			-7.255			-2.418
212600.000			-7.255			-2.418
212700.000			-7.255			-2.418
212801.000			-7.256			-2.419
212900.000			-7.255			-2.418
213000.000			-7.255			-2.418
213100.000			-7.256			-2.419
213201.000			-7.256			-2.419
213302.000			-7.256			-2.419
213401.000			-7.256			-2.419
213500.000			-7.255			-2.418
213601.000			-7.254			-2.418
213700.000			-7.255			-2.418
213800.000			-7.255			-2.418
213901.000			-7.255			-2.418
214000.000			-7.255			-2.418
214101.000			-7.254			-2.418
214202.000			-7.255			-2.418
214301.000			-7.255			-2.418
214400.000			-7.255			-2.418
214501.000			-7.254			-2.418
214600.000			-7.255			-2.418
214700.000			-7.255			-2.418
214801.000			-7.255			-2.418
214900.000			-7.255			-2.418
215001.000			-7.254			-2.418
215102.000			-7.254			-2.418
215201.000			-7.254			-2.418
215300.000			-7.254			-2.418
215401.000			-7.254			-2.418
215500.000			-7.254			-2.418
215600.000			-7.254			-2.418
215701.000			-7.254			-2.418
215800.000			-7.254			-2.418
215901.000			-7.254			-2.418
216002.000			-7.254			-2.418
216101.000			-7.254			-2.418
216200.000			-7.253			-2.418
216300.000			-7.254			-2.418
216400.000			-7.254			-2.418
216501.000			-7.254			-2.418
216600.000			-7.254			-2.418
216700.000			-7.254			-2.418
216802.000			-7.253			-2.418
216901.000			-7.253			-2.418
217001.000			-7.253			-2.418
217101.000			-7.254			-2.418
217200.000			-7.253			-2.418
217300.000			-7.254			-2.418
217401.000			-7.253			-2.418
217500.000			-7.253			-2.418
217600.000			-7.253			-2.418
217701.000			-7.253			-2.418
217801.000			-7.253			-2.418
217901.000			-7.253			-2.418
218001.000			-7.252			-2.417
218100.000			-7.252			-2.417
218200.000			-7.252			-2.417
218301.000			-7.251			-2.417
218400.000			-7.252			-2.417
218500.000			-7.254			-2.418
218601.000			-7.253			-2.418
218701.000			-7.252			-2.417
218801.000			-7.251			-2.417
218901.000			-7.252			-2.417
219000.000			-7.252			-2.417
219100.000			-7.252			-2.417
219201.000			-7.251			-2.417
219300.000			-7.252			-2.417
219400.000			-7.252			-2.417
219500.000			-7.251			-2.417
219601.000			-7.252			-2.417
219702.000			-7.252			-2.417
219801.000			-7.253			-2.418
219900.000			-7.252			-2.417
220001.000			-7.251			-2.417
220100.000			-7.252			-2.417
220200.000			-7.252			-2.417
220301.000			-7.252			-2.417
220400.000			-7.252			-2.417
220501.000			-7.252			-2.417
220602.000			-7.252			-2.417
220700.000			-7.251			-2.417
220800.000			-7.250			-2.417
220901.000			-7.249			-2.416
221000.000			-7.251			-2.417
221100.000			-7.250			-2.417
221201.000			-7.251			-2.417
221300.000			-7.252			-2.417
221401.000			-7.251			-2.417
221502.000			-7.250			-2.417
221600.000			-7.251			-2.417
221700.000			-7.250			-2.417
221801.000			-7.250			-2.417
221900.000			-7.251			-2.417
222000.000			-7.251			-2.417
222101.000			-7.251			-2.417
222200.000			-7.250			-2.417
222301.000			-7.251			-2.417
222402.000			-7.250			-2.417
222500.000			-7.251			-2.417
222600.000			-7.250			-2.417
222700.000			-7.250			-2.417
222800.000			-7.250			-2.417
222901.000			-7.250			-2.417
223000.000			-7.249			-2.416
223100.000			-7.250			-2.417
223202.000			-7.250			-2.417
223301.000			-7.250			-2.417
223401.000			-7.250			-2.417
223501.000			-7.250			-2.417
223600.000			-7.249			-2.416
223700.000			-7.248			-2.416
223801.000			-7.249			-2.416
223900.000			-7.249			-2.416
224000.000			-7.249			-2.416
224102.000			-7.249			-2.416
224201.000			-7.249			-2.416
224301.000			-7.248			-2.416
224401.000			-7.248			-2.416
224500.000			-7.249			-2.416
224600.000			-7.249			-2.416
224701.000			-7.248			-2.416
224800.000			-7.248			-2.416
224900.000			-7.248			-2.416
225001.000			-7.249			-2.416
225101.000			-7.249			-2.416
225201.000			-7.249			-2.416
225301.000			-7.249			-2.416
225400.000			-7.248			-2.416
225500.000			-7.248			-2.416
225601.000			-7.248			-2.416
225700.000			-7.248			-2.416
225800.000			-7.249			-2.416
225900.000			-7.248			-2.416
226001.000			-7.248			-2.416
226102.000			-7.247			-2.416
226201.000			-7.248			-2.416
226300.000			-7.247			-2.416
226401.000			-7.248			-2.416
226500.000			-7.247			-2.416
226600.000			-7.248			-2.416
226701.000			-7.247			-2.416
226800.000			-7.248			-2.416
226901.000			-7.247			-2.416
227002.000			-7.247			-2.416
227101.000			-7.248			-2.416
227200.000			-7.248			-2.416
227301.000			-7.248			-2.416
227400.000			-7.248			-2.416
227500.000			-7.248			-2.416
227601.000			-7.248			-2.416
227700.000			-7.247			-2.416
227800.000			-7.247			-2.416
227902.000			-7.248			-2.416
228001.000			-7.247			-2.416
228100.000			-7.248			-2.416
228201.000			-7.247			-2.416
228300.000			-7.247			-2.416
228400.000			-7.247			-2.416
228501.000			-7.247			-2.416
228600.000			-7.247			-2.416
228700.000			-7.246			-2.415
228802.000			-7.247			-2.416
228901.000			-7.247			-2.416
229002.000			-7.246			-2.415
229100.000			-7.246			-2.415
229200.000			-7.246			-2.415
229301.000			-7.246			-2.415
229400.000			-7.246			-2.415
229500.000			-7.246			-2.415
229601.000			-7.246			-2.415
229700.000			-7.247			-2.416
229801.000			-7.247			-2.416
229902.000			-7.246			-2.415
230000.000			-7.247			-2.416
230100.000			-7.246			-2.415
230201.000			-7.246			-2.415
230300.000			-7.246			-2.415
230400.000			-7.246			-2.415
230501.000			-7.245			-2.415
230600.000			-7.246			-2.415
230701.000			-7.246			-2.415
230802.000			-7.246			-2.415
230900.000			-7.245			-2.415
231000.000			-7.245			-2.415
231101.000			-7.245			-2.415
231200.000			-7.246			-2.415
231300.000			-7.246			-2.415
231401.000			-7.245			-2.415
231500.000			-7.245			-2.415
231601.000			-7.246			-2.415
231702.000			-7.245			-2.415
231800.000			-7.246			-2.415
231900.000			-7.245			-2.415
232001.000			-7.245			-2.415
232100.000			-7.245			-2.415
232200.000			-7.244			-2.415
232300.000			-7.245			-2.415
232400.000			-7.245			-2.415
232502.000			-7.245			-2.415
232601.000			-7.245			-2.415
232700.000			-7.246			-2.415
232801.000			-7.244			-2.415
232900.000			-7.245			-2.415
233000.000			-7.245			-2.415
233101.000			-7.245			-2.415
233200.000			-7.245			-2.415
233300.000			-7.245			-2.415
233402.000			-7.245			-2.415
233501.000			-7.244			-2.415
233600.000			-7.245			-2.415
233701.000			-7.245			-2.415
233800.000			-7.243			-2.414
233900.000			-7.244			-2.415
234001.000			-7.244			-2.415
234100.000			-7.244			-2.415
234200.000			-7.244			-2.415
234302.000			-7.244			-2.415
234401.000			-7.245			-2.415
234500.000			-7.244			-2.415
234601.000			-7.244			-2.415
234700.000			-7.244			-2.415
234800.000			-7.243			-2.414
234901.000			-7.243			-2.414
235000.000			-7.243			-2.414
235100.000			-7.243			-2.414
235202.000			-7.243			-2.414
235301.000			-7.244			-2.415
235400.000			-7.244			-2.415
235500.000			-7.242			-2.414
235600.000			-7.242			-2.414
235701.000			-7.243			-2.414
235800.000			-7.243			-2.414
235900.000			-7.242			-2.414
236001.000			-7.242			-2.414
236101.000			-7.243			-2.414
236201.000			-7.244			-2.415
236302.000			-7.243			-2.414
236400.000			-7.243			-2.414
236500.000			-7.243			-2.414
236601.000			-7.243			-2.414
236700.000			-7.243			-2.414
236800.000			-7.243			-2.414
236901.000			-7.242			-2.414
237001.000			-7.244			-2.415
237101.000			-7.243			-2.414
237202.000			-7.243			-2.414
237300.000			-7.243			-2.414
237400.000			-7.242			-2.414
237501.000			-7.242			-2.414
237600.000			-7.242			-2.414
237700.000			-7.242			-2.414
237801.000			-7.241			-2.414
237901.000			-7.242			-2.414
238001.000			-7.242			-2.414
238102.000			-7.242			-2.414
238200.000			-7.242			-2.414
238300.000			-7.242			-2.414
238401.000			-7.242			-2.414
238500.000			-7.242			-2.414
238600.000			-7.242			-2.414
238700.000			-7.241			-2.414
238800.000			-7.242			-2.414
238902.000			-7.241			-2.414
239001.000			-7.241			-2.414
239100.000			-7.242			-2.414
239201.000			-7.242			-2.414
239300.000			-7.241			-2.414
239400.000			-7.240			-2.413
239501.000			-7.242			-2.414
239600.000			-7.241			-2.414
239700.000			-7.242			-2.414
239802.000			-7.242			-2.414
239901.000			-7.241			-2.414
240000.000			-7.240			-2.413
240101.000			-7.241			-2.414
240200.000			-7.241			-2.414
240300.000			-7.242			-2.414
240401.000			-7.242			-2.414
240500.000			-7.242			-2.414
240600.000			-7.242			-2.414
240702.000			-7.241			-2.414
240801.000			-7.241			-2.414
240900.000			-7.241			-2.414
241001.000			-7.240			-2.413
241100.000			-7.240			-2.413
241200.000			-7.241			-2.414
241301.000			-7.241			-2.414
241400.000			-7.241			-2.414
241500.000			-7.241			-2.414
241602.000			-7.240			-2.413
241701.000			-7.241			-2.414
241800.000			-7.241			-2.414
241900.000			-7.241			-2.414
242000.000			-7.241			-2.414
242101.000			-7.240			-2.413
242200.000			-7.240			-2.413
242300.000			-7.240			-2.413
242401.000			-7.240			-2.413
242501.000			-7.239			-2.413
242601.000			-7.240			-2.413
242701.000			-7.240			-2.413
242800.000			-7.241			-2.414
242900.000			-7.240			-2.413
243001.000			-7.240			-2.413
243100.000			-7.240			-2.413
243200.000			-7.240			-2.413
243301.000			-7.239			-2.413
243401.000			-7.239			-2.413
243501.000			-7.240			-2.413
243602.000			-7.240			-2.413
243700.000			-7.239			-2.413
243800.000			-7.238			-2.413
243901.000			-7.238			-2.413
244000.000			-7.239			-2.413
244100.000			-7.240			-2.413
244201.000			-7.240			-2.413
244301.000			-7.239			-2.413
244401.000			-7.239			-2.413
244502.000			-7.239			-2.413
244600.000			-7.239			-2.413
244700.000			-7.239			-2.413
244801.000			-7.240			-2.413
244900.000			-7.239			-2.413
245000.000			-7.239			-2.413
245100.000			-7.238			-2.413
245200.000			-7.239			-2.413
245302.000			-7.238			-2.413
245401.000			-7.238			-2.413
245500.000			-7.238			-2.413
245601.000			-7.238			-2.413
245700.000			-7.237			-2.412
245800.000			-7.238			-2.413
245901.000			-7.239			-2.413
246000.000			-7.238			-2.413
246100.000			-7.238			-2.413
246202.000			-7.238			-2.413
246301.000			-7.238			-2.413
246401.000			-7.238			-2.413
246501.000			-7.238			-2.413
246600.000			-7.238			-2.413
246700.000			-7.238			-2.413
246801.000			-7.238			-2.413
246900.000			-7.238			-2.413
247000.000			-7.238			-2.413
247101.000			-7.237			-2.412
247201.000			-7.238			-2.413
247301.000			-7.237			-2.412
247401.000			-7.237			-2.412
247500.000			-7.238			-2.413
247600.000			-7.237			-2.412
247701.000			-7.238			-2.413
247800.000			-7.239			-2.413
247900.000			-7.238			-2.413
248001.000			-7.237			-2.412
248101.000			-7.236			-2.412
248202.000			-7.237			-2.412
248301.000			-7.236			-2.412
248400.000			-7.237			-2.412
248501.000			-7.237			-2.412
248600.000			-7.238			-2.413
248700.000			-7.237			-2.412
248801.000			-7.236			-2.412
248900.000			-7.237			-2.412
249000.000			-7.237			-2.412
249102.000			-7.236			-2.412
249201.000			-7.236			-2.412
249300.000			-7.238			-2.413
249401.000			-7.238			-2.413
249500.000			-7.236			-2.412
249600.000			-7.236			-2.412
249701.000			-7.236			-2.412
249800.000			-7.236			-2.412
249900.000			-7.236			-2.412
250002.000			-7.237			-2.412
250101.000			-7.237			-2.412
250200.000			-7.236			-2.412
250301.000			-7.236			-2.412
250400.000			-7.236			-2.412
250500.000			-7.236			-2.412
250601.000			-7.236			-2.412
250700.000			-7.236			-2.412
250800.000			-7.236			-2.412
250902.000			-7.235			-2.412
251001.000			-7.236			-2.412
251101.000			-7.236			-2.412
251201.000			-7.236			-2.412
251300.000			-7.235			-2.412
251400.000			-7.236			-2.412
251500.000			-7.236			-2.412
251600.000			-7.235			-2.412
251701.000			-7.235			-2.412
251801.000			-7.236			-2.412
251901.000			-7.234			-2.411
252002.000			-7.236			-2.412
252100.000			-7.235			-2.412
252200.000			-7.236			-2.412
252301.000			-7.236			-2.412
252400.000			-7.235			-2.412
252500.000			-7.235			-2.412
252601.000			-7.235			-2.412
252700.000			-7.235			-2.412
252801.000			-7.236			-2.412
252902.000			-7.236			-2.412
253000.000			-7.235			-2.412
253100.000			-7.234			-2.411
253201.000			-7.234			-2.411
253300.000			-7.235			-2.412
253400.000			-7.235			-2.412
253501.000			-7.236			-2.412
253600.000			-7.236			-2.412
253701.000			-7.235			-2.412
253802.000			-7.235			-2.412
253900.000			-7.235			-2.412
254000.000			-7.234			-2.411
254101.000			-7.235			-2.412
254200.000			-7.235			-2.412
254300.000			-7.235			-2.412
254401.000			-7.234			-2.411
254500.000			-7.234			-2.411
254602.000			-7.235			-2.412
254701.000			-7.234			-2.411
254801.000			-7.234			-2.411
254901.000			-7.234			-2.411
255000.000			-7.233			-2.411
255100.000			-7.234			-2.411
255201.000			-7.234			-2.411
255300.000			-7.234			-2.411
255400.000			-7.235			-2.412
255502.000			-7.235			-2.412
255601.000			-7.234			-2.411
255701.000			-7.234			-2.411
255801.000			-7.234			-2.411
255900.000			-7.234			-2.411
256000.000			-7.234			-2.411
256101.000			-7.234			-2.411
256200.000			-7.233			-2.411
256300.000			-7.234			-2.411
256401.000			-7.234			-2.411
256501.000			-7.234			-2.411
256601.000			-7.234			-2.411
256701.000			-7.233			-2.411
256800.000			-7.233			-2.411
256900.000			-7.233			-2.411
257001.000			-7.233			-2.411
257100.000			-7.234			-2.411
257200.000			-7.234			-2.411
257301.000			-7.233			-2.411
257401.000			-7.234			-2.411
257501.000			-7.234			-2.411
257601.000			-7.233			-2.411
257700.000			-7.233			-2.411
257800.000			-7.233			-2.411
257900.000			-7.233			-2.411
258000.000			-7.234			-2.411
258101.000			-7.233			-2.411
258200.000			-7.233			-2.411
258301.000			-7.233			-2.411
258402.000			-7.232			-2.411
258500.000			-7.232			-2.411
258600.000			-7.232			-2.411
258701.000			-7.232			-2.411
258800.000			-7.233			-2.411
258900.000			-7.233			-2.411
259001.000			-7.233			-2.411
259100.000			-7.233			-2.411
259201.000			-7.233			-2.411
259302.000			-7.232			-2.411
259401.000			-7.233			-2.411
259500.000			-7.233			-2.411
259601.000			-7.233			-2.411
259700.000			-7.233			-2.411
259800.000			-7.233			-2.411
259901.000			-7.232			-2.411
260000.000			-7.231			-2.410
260101.000			-7.232			-2.411
260202.000			-7.231			-2.410
260301.000			-7.231			-2.410
260400.000			-7.231			-2.410
260501.000			-7.232			-2.411
260600.000			-7.232			-2.411
260700.000			-7.232			-2.411
260801.000			-7.231			-2.410
260900.000			-7.232			-2.411
261002.000			-7.232			-2.411
261101.000			-7.231			-2.410
261201.000			-7.232			-2.411
261301.000			-7.231			-2.410
261400.000			-7.230			-2.410
261500.000			-7.230			-2.410
261601.000			-7.231			-2.410
261700.000			-7.231			-2.410
261800.000			-7.231			-2.410
261902.000			-7.231			-2.410
262001.000			-7.231			-2.410
262101.000			-7.233			-2.411
262201.000			-7.231			-2.410
262300.000			-7.231			-2.410
262400.000			-7.230			-2.410
262501.000			-7.231			-2.410
262600.000			-7.232			-2.411
262700.000			-7.232			-2.411
262802.000			-7.231			-2.410
262901.000			-7.231			-2.410
263001.000			-7.232			-2.411
263101.000			-7.231			-2.410
263200.000			-7.231			-2.410
263300.000			-7.230			-2.410
263401.000			-7.230			-2.410
263500.000			-7.230			-2.410
263600.000			-7.230			-2.410
263702.000			-7.230			-2.410
263801.000			-7.229			-2.410
263901.000			-7.229			-2.410
264001.000			-7.229			-2.410
264100.000			-7.229			-2.410
264200.000			-7.230			-2.410
264300.000			-7.232			-2.411
264400.000			-7.231			-2.410
264501.000			-7.230			-2.410
264601.000			-7.229			-2.410
264701.000			-7.230			-2.410
264802.000			-7.230			-2.410
264900.000			-7.230			-2.410
265000.000			-7.230			-2.410
265101.000			-7.229			-2.410
265200.000			-7.230			-2.410
265300.000			-7.231			-2.410
265401.000			-7.229			-2.410
265501.000			-7.229			-2.410
265601.000			-7.230			-2.410
265702.000			-7.231			-2.410
265800.000			-7.229			-2.410
265900.000			-7.229			-2.410
266001.000			-7.229			-2.410
266100.000			-7.230			-2.410
266200.000			-7.229			-2.410
266301.000			-7.230			-2.410
266400.000			-7.229			-2.410
266501.000			-7.229			-2.410
266602.000			-7.229			-2.410
266700.000			-7.230			-2.410
266800.000			-7.229			-2.410
266901.000			-7.229			-2.410
267000.000			-7.230			-2.410
267100.000			-7.229			-2.410
267201.000			-7.230			-2.410
267300.000			-7.229			-2.410
267402.000			-7.229			-2.410
267501.000			-7.229			-2.410
267601.000			-7.228			-2.409
267701.000			-7.228			-2.409
267800.000			-7.228			-2.409
267900.000			-7.228			-2.409
268001.000			-7.230			-2.410
268100.000			-7.230			-2.410
268200.000			-7.228			-2.409
268301.000			-7.229			-2.410
268401.000			-7.228			-2.409
268501.000			-7.229			-2.410
268601.000			-7.229			-2.410
268700.000			-7.227			-2.409
268800.000			-7.228			-2.409
268901.000			-7.228			-2.409
269000.000			-7.228			-2.409
269100.000			-7.228			-2.409
269201.000			-7.229			-2.410
269301.000			-7.228			-2.409
269401.000			-7.227			-2.409
269502.000			-7.228			-2.409
269600.000			-7.228			-2.409
269700.000			-7.229			-2.410
269801.000			-7.228			-2.409
269900.000			-7.227			-2.409
270000.000			-7.227			-2.409
270101.000			-7.227			-2.409
270200.000			-7.228			-2.409
270301.000			-7.228			-2.409
270402.000			-7.227			-2.409
270500.000			-7.228			-2.409
270600.000			-7.228			-2.409
270700.000			-7.228			-2.409
270800.000			-7.228			-2.409
270901.000			-7.228			-2.409
271000.000			-7.227			-2.409
271100.000			-7.227			-2.409
271202.000			-7.228			-2.409
271301.000			-7.227			-2.409
271400.000			-7.227			-2.409
271501.000			-7.227			-2.409
271600.000			-7.227			-2.409
271700.000			-7.227			-2.409
271801.000			-7.227			-2.409
271900.000			-7.227			-2.409
272000.000			-7.226			-2.409
272102.000			-7.225			-2.408
272201.000			-7.226			-2.409
272301.000			-7.225			-2.408
272401.000			-7.226			-2.409
272500.000			-7.227			-2.409
272600.000			-7.227			-2.409
272701.000			-7.227			-2.409
272800.000			-7.226			-2.409
272900.000			-7.227			-2.409
273002.000			-7.226			-2.409
273101.000			-7.227			-2.409
273201.000			-7.227			-2.409
273301.000			-7.227			-2.409
273400.000			-7.227			-2.409
273500.000			-7.226			-2.409
273601.000			-7.225			-2.408
273700.000			-7.226			-2.409
273800.000			-7.226			-2.409
273900.000			-7.226			-2.409
274001.000			-7.226			-2.409
274102.000			-7.226			-2.409
274200.000			-7.226			-2.409
274300.000			-7.226			-2.409
274401.000			-7.224			-2.408
274500.000			-7.225			-2.408
274600.000			-7.226			-2.409
274701.000			-7.226			-2.409
274800.000			-7.226			-2.409
274901.000			-7.226			-2.409
275002.000			-7.226			-2.409
275100.000			-7.226			-2.409
275200.000			-7.226			-2.409
275301.000			-7.226			-2.409
275400.000			-7.225			-2.408
275500.000			-7.225			-2.408
275601.000			-7.226			-2.409
275700.000			-7.226			-2.409
275801.000			-7.225			-2.408
275902.000			-7.225			-2.408
276001.000			-7.225			-2.408
276100.000			-7.225			-2.408
276201.000			-7.224			-2.408
276300.000			-7.225			-2.408
276400.000			-7.225			-2.408
276501.000			-7.224			-2.408
276600.000			-7.224			-2.408
276701.000			-7.224			-2.408
276802.000			-7.225			-2.408
276901.000			-7.224			-2.408
277000.000			-7.225			-2.408
277100.000			-7.224			-2.408
277200.000			-7.225			-2.408
277301.000			-7.225			-2.408
277400.000			-7.225			-2.408
277500.000			-7.225			-2.408
277601.000			-7.225			-2.408
277701.000			-7.223			-2.408
277801.000			-7.225			-2.408
277901.000			-7.224			-2.408
278000.000			-7.225			-2.408
278100.000			-7.224			-2.408
278201.000			-7.224			-2.408
278300.000			-7.223			-2.408
278400.000			-7.223			-2.408
278501.000			-7.224			-2.408
278601.000			-7.223			-2.408
278701.000			-7.222			-2.407
278801.000			-7.223			-2.408
278900.000			-7.224			-2.408
279000.000			-7.224			-2.408
279101.000			-7.223			-2.408
279200.000			-7.223			-2.408
279300.000			-7.223			-2.408
279401.000			-7.224			-2.408
279501.000			-7.224			-2.408
279601.000			-7.223			-2.408
279701.000			-7.223			-2.408
279800.000			-7.223			-2.408
279900.000			-7.223			-2.408
280001.000			-7.224			-2.408
280100.000			-7.223			-2.408
280200.000			-7.223			-2.408
280300.000			-7.223			-2.408
280401.000			-7.223			-2.408
280502.000			-7.223			-2.408
280601.000			-7.223			-2.408
280700.000			-7.222			-2.407
280801.000			-7.223			-2.408
280900.000			-7.223			-2.408
281000.000			-7.223			-2.408
281101.000			-7.222			-2.407
281200.000			-7.222			-2.407
281301.000			-7.223			-2.408
281402.000			-7.223			-2.408
281501.000			-7.221			-2.407
281600.000			-7.223			-2.408
281701.000			-7.223			-2.408
281800.000			-7.222			-2.407
281900.000			-7.221			-2.407
282001.000			-7.221			-2.407
282100.000			-7.221			-2.407
282201.000			-7.223			-2.408
282302.000			-7.223			-2.408
282401.000			-7.222			-2.407
282500.000			-7.222			-2.407
282601.000			-7.223			-2.408
282700.000			-7.222			-2.407
282800.000			-7.222			-2.407
282901.000			-7.222			-2.407
283000.000			-7.222			-2.407
283101.000			-7.221			-2.407
283202.000			-7.222			-2.407
283301.000			-7.222			-2.407
283400.000			-7.222			-2.407
283500.000			-7.221			-2.407
283600.000			-7.221			-2.407
283701.000			-7.221			-2.407
283800.000			-7.222			-2.407
283900.000			-7.222			-2.407
284002.000			-7.222			-2.407
284101.000			-7.221			-2.407
284201.000			-7.221			-2.407
284301.000			-7.222			-2.407
284400.000			-7.222			-2.407
284500.000			-7.221			-2.407
284601.000			-7.222			-2.407
284700.000			-7.222			-2.407
284800.000			-7.222			-2.407
284902.000			-7.222			-2.407
285001.000			-7.221			-2.407
285101.000			-7.221			-2.407
285201.000			-7.221			-2.407
285300.000			-7.222			-2.407
285400.000			-7.222			-2.407
285501.000			-7.221			-2.407
285600.000			-7.220			-2.407
285700.000			-7.221			-2.407
285802.000			-7.221			-2.407
285901.000			-7.221			-2.407
286001.000			-7.221			-2.407
286101.000			-7.220			-2.407
286200.000			-7.220			-2.407
286300.000			-7.221			-2.407
286401.000			-7.221			-2.407
286500.000			-7.220			-2.407
286600.000			-7.220			-2.407
286702.000			-7.220			-2.407
286801.000			-7.221			-2.407
286902.000			-7.222			-2.407
287000.000			-7.222			-2.407
287100.000			-7.221			-2.407
287201.000			-7.221			-2.407
287300.000			-7.221			-2.407
287400.000			-7.219			-2.406
287501.000			-7.220			-2.407
287601.000			-7.220			-2.407
287701.000			-7.221			-2.407
287802.000			-7.220			-2.407
287900.000			-7.220			-2.407
288000.000			-7.220			-2.407
288101.000			-7.220			-2.407
288200.000			-7.220			-2.407
288300.000			-7.220			-2.407
288401.000			-7.220			-2.407
288501.000			-7.219			-2.406
288601.000			-7.220			-2.407
288702.000			-7.220			-2.407
288800.000			-7.220			-2.407
288900.000			-7.220			-2.407
289001.000			-7.219			-2.406
289100.000			-7.220			-2.407
289200.000			-7.220			-2.407
289301.000			-7.220			-2.407
289400.000			-7.220			-2.407
289501.000			-7.220			-2.407
289602.000			-7.220			-2.407
289701.000			-7.219			-2.406
289800.000			-7.219			-2.406
289900.000			-7.218			-2.406
290000.000			-7.218			-2.406
290101.000			-7.218			-2.406
290200.000			-7.219			-2.406
290300.000			-7.219			-2.406
290401.000			-7.220			-2.407
290501.000			-7.219			-2.406
290601.000			-7.219			-2.406
290701.000			-7.220			-2.407
290800.000			-7.220			-2.407
290900.000			-7.220			-2.407
291001.000			-7.219			-2.406
291100.000			-7.219			-2.406
291200.000			-7.218			-2.406
291301.000			-7.218			-2.406
291401.000			-7.218			-2.406
291501.000			-7.218			-2.406
291601.000			-7.218			-2.406
291700.000			-7.219			-2.406
291800.000			-7.218			-2.406
291901.000			-7.218			-2.406
292000.000			-7.218			-2.406
292100.000			-7.218			-2.406
292201.000			-7.218			-2.406
292301.000			-7.218			-2.406
292401.000			-7.219			-2.406
292501.000			-7.219			-2.406
292600.000			-7.218			-2.406
292700.000			-7.218			-2.406
292801.000			-7.218			-2.406
292900.000			-7.218			-2.406
293000.000			-7.217			-2.406
293100.000			-7.218			-2.406
293201.000			-7.218			-2.406
293302.000			-7.218			-2.406
293401.000			-7.217			-2.406
293500.000			-7.217			-2.406
293601.000			-7.217			-2.406
293700.000			-7.216			-2.405
293800.000			-7.217			-2.406
293901.000			-7.218			-2.406
294000.000			-7.218			-2.406
294100.000			-7.217			-2.406
294202.000			-7.217			-2.406
294301.000			-7.217			-2.406
294400.000			-7.218			-2.406
294501.000			-7.217			-2.406
294600.000			-7.217			-2.406
294700.000			-7.217			-2.406
294801.000			-7.218			-2.406
294900.000			-7.218			-2.406
295000.000			-7.216			-2.405
295102.000			-7.217			-2.406
295201.000			-7.217			-2.406
295301.000			-7.217			-2.406
295401.000			-7.218			-2.406
295500.000			-7.216			-2.405
295600.000			-7.215			-2.405
295701.000			-7.219			-2.406
295800.000			-7.217			-2.406
295900.000			-7.216			-2.405
296001.000			-7.217			-2.406
296101.000			-7.217			-2.406
296202.000			-7.216			-2.405
296300.000			-7.216			-2.405
296400.000			-7.216			-2.405
296501.000			-7.217			-2.406
296600.000			-7.217			-2.406
296700.000			-7.216			-2.405
296801.000			-7.216			-2.405
296900.000			-7.215			-2.405
297001.000			-7.214			-2.405
297102.000			-7.215			-2.405
297201.000			-7.216			-2.405
297300.000			-7.215			-2.405
297401.000			-7.215			-2.405
297500.000			-7.216			-2.405
297600.000			-7.217			-2.406
297701.000			-7.216			-2.405
297800.000			-7.216			-2.405
297900.000			-7.216			-2.405
298002.000			-7.215			-2.405
298101.000			-7.215			-2.405
298200.000			-7.216			-2.405
298301.000			-7.216			-2.405
298400.000			-7.215			-2.405
298500.000			-7.215			-2.405
298601.000			-7.215			-2.405
298700.000			-7.215			-2.405
298800.000			-7.215			-2.405
298902.000			-7.215			-2.405
299001.000			-7.215			-2.405
299100.000			-7.215			-2.405
299201.000			-7.215			-2.405
299300.000			-7.214			-2.405
299400.000			-7.215			-2.405
299500.000			-7.215			-2.405
299600.000			-7.215			-2.405
299701.000			-7.214			-2.405
299801.000			-7.214			-2.405
299901.000			-7.214			-2.405
