# Acquired on 09/01/2024 16:20:05 
# SPIDER: Creep_10mm_07714532B-2
# CREEP MEASUREMENT

# time [ms]		force [N]		stiffness [N/mm]
2.000			-51.566			-5.157
101.000			-53.094			-5.309
201.000			-53.472			-5.347
301.000			-53.142			-5.314
400.000			-52.781			-5.278
500.000			-52.509			-5.251
601.000			-52.091			-5.209
700.000			-51.923			-5.192
801.000			-51.771			-5.177
902.000			-51.635			-5.163
1000.000			-51.512			-5.151
1100.000			-51.399			-5.140
1201.000			-51.294			-5.129
1300.000			-51.106			-5.111
1400.000			-51.020			-5.102
1502.000			-50.941			-5.094
1601.000			-50.865			-5.086
1700.000			-50.793			-5.079
1801.000			-50.726			-5.073
1900.000			-50.661			-5.066
2000.000			-50.540			-5.054
2101.000			-50.483			-5.048
2200.000			-50.429			-5.043
2301.000			-50.377			-5.038
2402.000			-50.326			-5.033
2500.000			-50.278			-5.028
2600.000			-50.231			-5.023
2701.000			-50.143			-5.014
2800.000			-50.100			-5.010
2900.000			-50.059			-5.006
3002.000			-50.018			-5.002
3101.000			-49.980			-4.998
3200.000			-49.943			-4.994
3300.000			-49.906			-4.991
3400.000			-49.871			-4.987
3501.000			-49.804			-4.980
3600.000			-49.771			-4.977
3700.000			-49.738			-4.974
3802.000			-49.706			-4.971
3901.000			-49.677			-4.968
4001.000			-49.647			-4.965
4101.000			-49.617			-4.962
4200.000			-49.560			-4.956
4300.000			-49.533			-4.953
4401.000			-49.508			-4.951
4500.000			-49.481			-4.948
4601.000			-49.455			-4.946
4702.000			-49.430			-4.943
4800.000			-49.406			-4.941
4900.000			-49.358			-4.936
5001.000			-49.334			-4.933
5100.000			-49.311			-4.931
5200.000			-49.287			-4.929
5301.000			-49.264			-4.926
5401.000			-49.244			-4.924
5501.000			-49.222			-4.922
5601.000			-49.181			-4.918
5700.000			-49.160			-4.916
5800.000			-49.140			-4.914
5901.000			-49.120			-4.912
6000.000			-49.100			-4.910
6100.000			-49.082			-4.908
6202.000			-49.063			-4.906
6301.000			-49.044			-4.904
6400.000			-49.007			-4.901
6500.000			-48.989			-4.899
6600.000			-48.972			-4.897
6701.000			-48.955			-4.895
6800.000			-48.937			-4.894
6900.000			-48.920			-4.892
7002.000			-48.903			-4.890
7101.000			-48.871			-4.887
7200.000			-48.854			-4.885
7301.000			-48.838			-4.884
7400.000			-48.822			-4.882
7500.000			-48.807			-4.881
7601.000			-48.792			-4.879
7700.000			-48.776			-4.878
7801.000			-48.747			-4.875
7902.000			-48.732			-4.873
8000.000			-48.717			-4.872
8100.000			-48.703			-4.870
8201.000			-48.688			-4.869
8300.000			-48.674			-4.867
8400.000			-48.661			-4.866
8501.000			-48.634			-4.863
8601.000			-48.620			-4.862
8701.000			-48.606			-4.861
8801.000			-48.593			-4.859
8900.000			-48.580			-4.858
9000.000			-48.568			-4.857
9101.000			-48.555			-4.856
9200.000			-48.543			-4.854
9300.000			-48.518			-4.852
9402.000			-48.505			-4.851
9501.000			-48.493			-4.849
9600.000			-48.482			-4.848
9700.000			-48.470			-4.847
9800.000			-48.458			-4.846
9901.000			-48.446			-4.845
10000.000			-48.423			-4.842
10100.000			-48.412			-4.841
10202.000			-48.400			-4.840
10300.000			-48.388			-4.839
10400.000			-48.378			-4.838
10501.000			-48.367			-4.837
10600.000			-48.355			-4.836
10700.000			-48.334			-4.833
10801.000			-48.324			-4.832
10901.000			-48.313			-4.831
11001.000			-48.302			-4.830
11101.000			-48.291			-4.829
11200.000			-48.281			-4.828
11300.000			-48.272			-4.827
11401.000			-48.251			-4.825
11500.000			-48.241			-4.824
11600.000			-48.231			-4.823
11702.000			-48.221			-4.822
11801.000			-48.212			-4.821
11900.000			-48.202			-4.820
12001.000			-48.192			-4.819
12100.000			-48.183			-4.818
12200.000			-48.164			-4.816
12301.000			-48.155			-4.816
12400.000			-48.146			-4.815
12501.000			-48.137			-4.814
12602.000			-48.128			-4.813
12700.000			-48.118			-4.812
12800.000			-48.109			-4.811
12900.000			-48.092			-4.809
13000.000			-48.083			-4.808
13101.000			-48.075			-4.807
13200.000			-48.065			-4.807
13301.000			-48.057			-4.806
13402.000			-48.049			-4.805
13500.000			-48.040			-4.804
13600.000			-48.023			-4.802
13701.000			-48.014			-4.801
13800.000			-48.007			-4.801
13900.000			-47.998			-4.800
14001.000			-47.989			-4.799
14101.000			-47.980			-4.798
14201.000			-47.973			-4.797
14301.000			-47.957			-4.796
14400.000			-47.950			-4.795
14500.000			-47.942			-4.794
14601.000			-47.934			-4.793
14700.000			-47.926			-4.793
14800.000			-47.918			-4.792
14902.000			-47.911			-4.791
15001.000			-47.895			-4.789
15100.000			-47.887			-4.789
15201.000			-47.880			-4.788
15300.000			-47.873			-4.787
15400.000			-47.866			-4.787
15501.000			-47.858			-4.786
15600.000			-47.851			-4.785
15701.000			-47.843			-4.784
15802.000			-47.829			-4.783
15901.000			-47.822			-4.782
16000.000			-47.815			-4.782
16100.000			-47.808			-4.781
16200.000			-47.800			-4.780
16301.000			-47.794			-4.779
16400.000			-47.786			-4.779
16500.000			-47.773			-4.777
16602.000			-47.766			-4.777
16701.000			-47.759			-4.776
16800.000			-47.752			-4.775
16901.000			-47.746			-4.775
17000.000			-47.739			-4.774
17100.000			-47.731			-4.773
17201.000			-47.720			-4.772
17300.000			-47.713			-4.771
17401.000			-47.706			-4.771
17502.000			-47.700			-4.770
17600.000			-47.693			-4.769
17700.000			-47.687			-4.769
17801.000			-47.680			-4.768
17900.000			-47.667			-4.767
18000.000			-47.660			-4.766
18101.000			-47.655			-4.766
18201.000			-47.649			-4.765
18301.000			-47.643			-4.764
18401.000			-47.637			-4.764
18500.000			-47.629			-4.763
18600.000			-47.623			-4.762
18701.000			-47.612			-4.761
18800.000			-47.605			-4.760
18900.000			-47.599			-4.760
19001.000			-47.594			-4.759
19101.000			-47.587			-4.759
19202.000			-47.582			-4.758
19300.000			-47.576			-4.758
19400.000			-47.564			-4.756
19501.000			-47.559			-4.756
19600.000			-47.553			-4.755
19700.000			-47.547			-4.755
19801.000			-47.541			-4.754
19901.000			-47.536			-4.754
20001.000			-47.530			-4.753
20101.000			-47.519			-4.752
20200.000			-47.512			-4.751
20300.000			-47.507			-4.751
20401.000			-47.502			-4.750
20500.000			-47.497			-4.750
20600.000			-47.491			-4.749
20702.000			-47.486			-4.749
20801.000			-47.476			-4.748
20900.000			-47.469			-4.747
21001.000			-47.464			-4.746
21100.000			-47.458			-4.746
21200.000			-47.452			-4.745
21301.000			-47.447			-4.745
21400.000			-47.443			-4.744
21501.000			-47.438			-4.744
21602.000			-47.426			-4.743
21700.000			-47.421			-4.742
21800.000			-47.416			-4.742
21901.000			-47.412			-4.741
22000.000			-47.406			-4.741
22100.000			-47.401			-4.740
22201.000			-47.396			-4.740
22301.000			-47.385			-4.739
22402.000			-47.380			-4.738
22500.000			-47.375			-4.738
22600.000			-47.371			-4.737
22701.000			-47.366			-4.737
22800.000			-47.361			-4.736
22900.000			-47.355			-4.736
23001.000			-47.345			-4.735
23101.000			-47.341			-4.734
23201.000			-47.337			-4.734
23301.000			-47.332			-4.733
23400.000			-47.328			-4.733
23500.000			-47.323			-4.732
23601.000			-47.318			-4.732
23700.000			-47.306			-4.731
23800.000			-47.302			-4.730
23902.000			-47.297			-4.730
24001.000			-47.293			-4.729
24100.000			-47.288			-4.729
24201.000			-47.284			-4.728
24300.000			-47.280			-4.728
24400.000			-47.274			-4.727
24501.000			-47.265			-4.727
24600.000			-47.260			-4.726
24701.000			-47.256			-4.726
24802.000			-47.251			-4.725
24900.000			-47.247			-4.725
25000.000			-47.243			-4.724
25101.000			-47.238			-4.724
25200.000			-47.229			-4.723
25300.000			-47.225			-4.723
25401.000			-47.221			-4.722
25501.000			-47.216			-4.722
25602.000			-47.211			-4.721
25700.000			-47.206			-4.721
25800.000			-47.203			-4.720
25901.000			-47.194			-4.719
26000.000			-47.189			-4.719
26100.000			-47.186			-4.719
26201.000			-47.180			-4.718
26301.000			-47.175			-4.718
26401.000			-47.170			-4.717
26501.000			-47.166			-4.717
26600.000			-47.159			-4.716
26700.000			-47.154			-4.715
26801.000			-47.150			-4.715
26900.000			-47.145			-4.715
27000.000			-47.141			-4.714
27102.000			-47.138			-4.714
27201.000			-47.134			-4.713
27300.000			-47.126			-4.713
27401.000			-47.121			-4.712
27500.000			-47.117			-4.712
27600.000			-47.114			-4.711
27701.000			-47.109			-4.711
27800.000			-47.106			-4.711
27901.000			-47.102			-4.710
28002.000			-47.097			-4.710
28100.000			-47.089			-4.709
28200.000			-47.085			-4.708
28301.000			-47.081			-4.708
28400.000			-47.076			-4.708
28500.000			-47.073			-4.707
28601.000			-47.069			-4.707
28701.000			-47.065			-4.707
28802.000			-47.059			-4.706
28900.000			-47.055			-4.705
29000.000			-47.050			-4.705
29101.000			-47.046			-4.705
29200.000			-47.043			-4.704
29300.000			-47.039			-4.704
29401.000			-47.034			-4.703
29501.000			-47.026			-4.703
29601.000			-47.021			-4.702
29701.000			-47.018			-4.702
29800.000			-47.014			-4.701
29900.000			-47.011			-4.701
30001.000			-47.007			-4.701
30100.000			-47.004			-4.700
30200.000			-46.996			-4.700
30302.000			-46.993			-4.699
30401.000			-46.990			-4.699
30500.000			-46.985			-4.698
30601.000			-46.980			-4.698
30700.000			-46.977			-4.698
30800.000			-46.974			-4.697
30901.000			-46.967			-4.697
31000.000			-46.963			-4.696
31101.000			-46.960			-4.696
31202.000			-46.956			-4.696
31300.000			-46.952			-4.695
31400.000			-46.950			-4.695
31501.000			-46.945			-4.694
31600.000			-46.941			-4.694
31700.000			-46.935			-4.693
31801.000			-46.932			-4.693
31901.000			-46.929			-4.693
32002.000			-46.924			-4.692
32101.000			-46.920			-4.692
32200.000			-46.918			-4.692
32301.000			-46.915			-4.691
32400.000			-46.907			-4.691
32500.000			-46.903			-4.690
32601.000			-46.900			-4.690
32701.000			-46.897			-4.690
32801.000			-46.894			-4.689
32901.000			-46.890			-4.689
33000.000			-46.887			-4.689
33100.000			-46.880			-4.688
33201.000			-46.877			-4.688
33300.000			-46.873			-4.687
33400.000			-46.870			-4.687
33501.000			-46.866			-4.687
33601.000			-46.862			-4.686
33701.000			-46.860			-4.686
33801.000			-46.853			-4.685
33900.000			-46.849			-4.685
34000.000			-46.846			-4.685
34101.000			-46.843			-4.684
34200.000			-46.839			-4.684
34300.000			-46.835			-4.684
34402.000			-46.833			-4.683
34501.000			-46.830			-4.683
34600.000			-46.823			-4.682
34701.000			-46.819			-4.682
34800.000			-46.816			-4.682
34900.000			-46.812			-4.681
35001.000			-46.809			-4.681
35100.000			-46.807			-4.681
35202.000			-46.803			-4.680
35301.000			-46.797			-4.680
35400.000			-46.795			-4.680
35501.000			-46.791			-4.679
35600.000			-46.789			-4.679
35700.000			-46.785			-4.679
35801.000			-46.781			-4.678
35900.000			-46.778			-4.678
36001.000			-46.773			-4.677
36102.000			-46.770			-4.677
36200.000			-46.766			-4.677
36300.000			-46.763			-4.676
36401.000			-46.759			-4.676
36500.000			-46.756			-4.676
36600.000			-46.753			-4.675
36701.000			-46.747			-4.675
36801.000			-46.744			-4.674
36901.000			-46.741			-4.674
37002.000			-46.739			-4.674
37100.000			-46.735			-4.674
37200.000			-46.732			-4.673
37301.000			-46.730			-4.673
37400.000			-46.726			-4.673
37500.000			-46.721			-4.672
37601.000			-46.718			-4.672
37701.000			-46.714			-4.671
37801.000			-46.712			-4.671
37901.000			-46.709			-4.671
38000.000			-46.706			-4.671
38100.000			-46.703			-4.670
38201.000			-46.698			-4.670
38300.000			-46.694			-4.669
38400.000			-46.691			-4.669
38502.000			-46.688			-4.669
38601.000			-46.685			-4.668
38701.000			-46.683			-4.668
38800.000			-46.680			-4.668
38900.000			-46.675			-4.667
39001.000			-46.671			-4.667
39100.000			-46.668			-4.667
39200.000			-46.665			-4.667
39302.000			-46.663			-4.666
39401.000			-46.659			-4.666
39501.000			-46.657			-4.666
39601.000			-46.651			-4.665
39700.000			-46.648			-4.665
39800.000			-46.645			-4.665
39901.000			-46.643			-4.664
40000.000			-46.639			-4.664
40100.000			-46.635			-4.664
40202.000			-46.634			-4.663
40301.000			-46.628			-4.663
40400.000			-46.626			-4.663
40501.000			-46.623			-4.662
40600.000			-46.620			-4.662
40700.000			-46.617			-4.662
40801.000			-46.615			-4.662
40901.000			-46.612			-4.661
41001.000			-46.609			-4.661
41101.000			-46.604			-4.660
41200.000			-46.602			-4.660
41300.000			-46.599			-4.660
41401.000			-46.597			-4.660
41500.000			-46.594			-4.659
41600.000			-46.590			-4.659
41702.000			-46.588			-4.659
41801.000			-46.582			-4.658
41902.000			-46.580			-4.658
42000.000			-46.577			-4.658
42100.000			-46.574			-4.657
42201.000			-46.571			-4.657
42300.000			-46.569			-4.657
42400.000			-46.566			-4.657
42501.000			-46.561			-4.656
42601.000			-46.558			-4.656
42701.000			-46.555			-4.656
42801.000			-46.553			-4.655
42900.000			-46.550			-4.655
43000.000			-46.548			-4.655
43101.000			-46.546			-4.655
43200.000			-46.541			-4.654
43300.000			-46.537			-4.654
43402.000			-46.535			-4.654
43501.000			-46.532			-4.653
43600.000			-46.529			-4.653
43701.000			-46.527			-4.653
43800.000			-46.524			-4.652
43900.000			-46.523			-4.652
44001.000			-46.517			-4.652
44100.000			-46.514			-4.651
44201.000			-46.511			-4.651
44301.000			-46.509			-4.651
44400.000			-46.507			-4.651
44500.000			-46.504			-4.650
44601.000			-46.501			-4.650
44700.000			-46.496			-4.650
44800.000			-46.493			-4.649
44900.000			-46.491			-4.649
45001.000			-46.488			-4.649
45102.000			-46.486			-4.649
45200.000			-46.484			-4.648
45300.000			-46.483			-4.648
45401.000			-46.477			-4.648
45500.000			-46.474			-4.647
45600.000			-46.471			-4.647
45701.000			-46.470			-4.647
45801.000			-46.468			-4.647
45901.000			-46.464			-4.646
46001.000			-46.462			-4.646
46100.000			-46.458			-4.646
46200.000			-46.454			-4.645
46301.000			-46.451			-4.645
46400.000			-46.449			-4.645
46500.000			-46.446			-4.645
46602.000			-46.444			-4.644
46701.000			-46.442			-4.644
46800.000			-46.437			-4.644
46901.000			-46.435			-4.644
47000.000			-46.433			-4.643
47100.000			-46.431			-4.643
47201.000			-46.428			-4.643
47300.000			-46.425			-4.643
47401.000			-46.423			-4.642
47502.000			-46.421			-4.642
47600.000			-46.416			-4.642
47700.000			-46.414			-4.641
47801.000			-46.412			-4.641
47900.000			-46.408			-4.641
48000.000			-46.406			-4.641
48100.000			-46.405			-4.641
48201.000			-46.402			-4.640
48302.000			-46.398			-4.640
48400.000			-46.395			-4.640
48500.000			-46.393			-4.639
48601.000			-46.391			-4.639
48700.000			-46.388			-4.639
48800.000			-46.386			-4.639
48901.000			-46.383			-4.638
49001.000			-46.378			-4.638
49101.000			-46.377			-4.638
49201.000			-46.374			-4.637
49300.000			-46.372			-4.637
49400.000			-46.370			-4.637
49501.000			-46.368			-4.637
49600.000			-46.366			-4.637
49700.000			-46.362			-4.636
49802.000			-46.359			-4.636
49901.000			-46.356			-4.636
50001.000			-46.354			-4.635
50101.000			-46.351			-4.635
50200.000			-46.349			-4.635
50300.000			-46.347			-4.635
50401.000			-46.344			-4.634
50500.000			-46.341			-4.634
50600.000			-46.339			-4.634
50702.000			-46.338			-4.634
50801.000			-46.334			-4.633
50900.000			-46.331			-4.633
51001.000			-46.330			-4.633
51100.000			-46.328			-4.633
51200.000			-46.323			-4.632
51300.000			-46.320			-4.632
51400.000			-46.317			-4.632
51502.000			-46.315			-4.632
51601.000			-46.314			-4.631
51700.000			-46.312			-4.631
51801.000			-46.310			-4.631
51900.000			-46.305			-4.631
52000.000			-46.304			-4.630
52101.000			-46.302			-4.630
52201.000			-46.300			-4.630
52301.000			-46.297			-4.630
52402.000			-46.295			-4.629
52500.000			-46.293			-4.629
52600.000			-46.288			-4.629
52701.000			-46.286			-4.629
52800.000			-46.284			-4.628
52900.000			-46.281			-4.628
53001.000			-46.280			-4.628
53101.000			-46.278			-4.628
53201.000			-46.276			-4.628
53301.000			-46.271			-4.627
53400.000			-46.270			-4.627
53500.000			-46.267			-4.627
53601.000			-46.265			-4.626
53700.000			-46.263			-4.626
53800.000			-46.262			-4.626
53902.000			-46.260			-4.626
54001.000			-46.258			-4.626
54100.000			-46.253			-4.625
54201.000			-46.251			-4.625
54300.000			-46.248			-4.625
54400.000			-46.246			-4.625
54500.000			-46.245			-4.624
54600.000			-46.242			-4.624
54702.000			-46.240			-4.624
54801.000			-46.237			-4.624
54900.000			-46.235			-4.624
55001.000			-46.233			-4.623
55100.000			-46.230			-4.623
55200.000			-46.228			-4.623
55301.000			-46.226			-4.623
55401.000			-46.224			-4.622
55501.000			-46.220			-4.622
55602.000			-46.218			-4.622
55700.000			-46.215			-4.622
55800.000			-46.213			-4.621
55901.000			-46.211			-4.621
56000.000			-46.211			-4.621
56100.000			-46.208			-4.621
56202.000			-46.204			-4.620
56301.000			-46.203			-4.620
56401.000			-46.200			-4.620
56501.000			-46.197			-4.620
56600.000			-46.195			-4.620
56700.000			-46.195			-4.619
56801.000			-46.192			-4.619
56900.000			-46.190			-4.619
57000.000			-46.186			-4.619
57102.000			-46.184			-4.618
57201.000			-46.183			-4.618
57300.000			-46.181			-4.618
57401.000			-46.179			-4.618
57500.000			-46.176			-4.618
57600.000			-46.175			-4.618
57700.000			-46.171			-4.617
57800.000			-46.168			-4.617
57902.000			-46.167			-4.617
58001.000			-46.166			-4.617
58100.000			-46.163			-4.616
58201.000			-46.161			-4.616
58300.000			-46.160			-4.616
58400.000			-46.156			-4.616
58501.000			-46.155			-4.616
58600.000			-46.152			-4.615
58701.000			-46.150			-4.615
58802.000			-46.149			-4.615
58900.000			-46.146			-4.615
59000.000			-46.146			-4.615
59101.000			-46.140			-4.614
59200.000			-46.139			-4.614
59300.000			-46.137			-4.614
59401.000			-46.135			-4.613
59501.000			-46.132			-4.613
59601.000			-46.131			-4.613
59701.000			-46.129			-4.613
59800.000			-46.127			-4.613
59900.000			-46.123			-4.612
60001.000			-46.122			-4.612
60100.000			-46.120			-4.612
60200.000			-46.118			-4.612
60302.000			-46.116			-4.612
60401.000			-46.114			-4.611
60500.000			-46.113			-4.611
60601.000			-46.109			-4.611
60700.000			-46.108			-4.611
60800.000			-46.106			-4.611
60900.000			-46.102			-4.610
61000.000			-46.101			-4.610
61102.000			-46.100			-4.610
61201.000			-46.099			-4.610
61300.000			-46.095			-4.609
61401.000			-46.092			-4.609
61500.000			-46.090			-4.609
61600.000			-46.088			-4.609
61701.000			-46.087			-4.609
61801.000			-46.086			-4.609
61901.000			-46.084			-4.608
62002.000			-46.081			-4.608
62100.000			-46.079			-4.608
62200.000			-46.077			-4.608
62301.000			-46.075			-4.608
62400.000			-46.073			-4.607
62500.000			-46.071			-4.607
62601.000			-46.070			-4.607
62701.000			-46.068			-4.607
62801.000			-46.065			-4.606
62901.000			-46.063			-4.606
63000.000			-46.062			-4.606
63100.000			-46.060			-4.606
63201.000			-46.058			-4.606
63300.000			-46.056			-4.606
63400.000			-46.053			-4.605
63502.000			-46.051			-4.605
63601.000			-46.049			-4.605
63700.000			-46.048			-4.605
63801.000			-46.045			-4.605
63900.000			-46.043			-4.604
64000.000			-46.042			-4.604
64100.000			-46.041			-4.604
64200.000			-46.037			-4.604
64302.000			-46.034			-4.603
64401.000			-46.033			-4.603
64500.000			-46.032			-4.603
64601.000			-46.030			-4.603
64700.000			-46.028			-4.603
64800.000			-46.026			-4.603
64901.000			-46.023			-4.602
65001.000			-46.021			-4.602
65101.000			-46.019			-4.602
65202.000			-46.018			-4.602
65300.000			-46.015			-4.602
65400.000			-46.014			-4.601
65501.000			-46.013			-4.601
65600.000			-46.009			-4.601
65700.000			-46.007			-4.601
65801.000			-46.006			-4.601
65901.000			-46.004			-4.600
66001.000			-46.003			-4.600
66101.000			-46.001			-4.600
66200.000			-45.999			-4.600
66300.000			-45.997			-4.600
66401.000			-45.995			-4.599
66500.000			-45.993			-4.599
66600.000			-45.991			-4.599
66702.000			-45.990			-4.599
66801.000			-45.988			-4.599
66900.000			-45.986			-4.599
67001.000			-45.985			-4.598
67100.000			-45.981			-4.598
67200.000			-45.980			-4.598
67300.000			-45.977			-4.598
67400.000			-45.977			-4.598
67501.000			-45.975			-4.598
67601.000			-45.973			-4.597
67701.000			-45.971			-4.597
67801.000			-45.969			-4.597
67900.000			-45.968			-4.597
68000.000			-45.965			-4.597
68101.000			-45.963			-4.596
68200.000			-45.962			-4.596
68300.000			-45.961			-4.596
68402.000			-45.960			-4.596
68501.000			-45.955			-4.595
68600.000			-45.953			-4.595
68701.000			-45.952			-4.595
68800.000			-45.951			-4.595
68900.000			-45.950			-4.595
69001.000			-45.948			-4.595
69100.000			-45.946			-4.595
69200.000			-45.944			-4.594
69302.000			-45.940			-4.594
69401.000			-45.938			-4.594
69500.000			-45.936			-4.594
69601.000			-45.934			-4.593
69700.000			-45.933			-4.593
69800.000			-45.932			-4.593
69901.000			-45.931			-4.593
70000.000			-45.928			-4.593
70101.000			-45.926			-4.593
70202.000			-45.925			-4.592
70300.000			-45.923			-4.592
70400.000			-45.921			-4.592
70500.000			-45.919			-4.592
70600.000			-45.918			-4.592
70701.000			-45.915			-4.591
70800.000			-45.914			-4.591
70901.000			-45.912			-4.591
71002.000			-45.910			-4.591
71100.000			-45.909			-4.591
71200.000			-45.908			-4.591
71301.000			-45.905			-4.591
71400.000			-45.902			-4.590
71500.000			-45.901			-4.590
71601.000			-45.899			-4.590
71701.000			-45.897			-4.590
71801.000			-45.896			-4.590
71901.000			-45.894			-4.589
72000.000			-45.893			-4.589
72100.000			-45.888			-4.589
72201.000			-45.888			-4.589
72300.000			-45.887			-4.589
72400.000			-45.885			-4.589
72501.000			-45.883			-4.588
72601.000			-45.881			-4.588
72701.000			-45.879			-4.588
72801.000			-45.877			-4.588
72900.000			-45.876			-4.588
73000.000			-45.874			-4.587
73101.000			-45.872			-4.587
73200.000			-45.871			-4.587
73300.000			-45.868			-4.587
73402.000			-45.867			-4.587
73501.000			-45.867			-4.587
73600.000			-45.864			-4.586
73700.000			-45.862			-4.586
73800.000			-45.861			-4.586
73901.000			-45.860			-4.586
74000.000			-45.858			-4.586
74100.000			-45.856			-4.586
74202.000			-45.853			-4.585
74301.000			-45.851			-4.585
74401.000			-45.849			-4.585
74501.000			-45.848			-4.585
74600.000			-45.846			-4.585
74700.000			-45.844			-4.584
74801.000			-45.844			-4.584
74900.000			-45.842			-4.584
75000.000			-45.838			-4.584
75102.000			-45.838			-4.584
75201.000			-45.835			-4.584
75300.000			-45.834			-4.583
75401.000			-45.832			-4.583
75500.000			-45.832			-4.583
75600.000			-45.830			-4.583
75701.000			-45.828			-4.583
75800.000			-45.825			-4.583
75901.000			-45.824			-4.582
76002.000			-45.822			-4.582
76101.000			-45.820			-4.582
76200.000			-45.819			-4.582
76301.000			-45.818			-4.582
76400.000			-45.816			-4.582
76500.000			-45.814			-4.581
76601.000			-45.812			-4.581
76700.000			-45.809			-4.581
76802.000			-45.808			-4.581
76901.000			-45.808			-4.581
77000.000			-45.807			-4.581
77101.000			-45.805			-4.580
77200.000			-45.802			-4.580
77300.000			-45.801			-4.580
77401.000			-45.799			-4.580
77500.000			-45.797			-4.580
77601.000			-45.796			-4.580
77702.000			-45.794			-4.579
77800.000			-45.793			-4.579
77900.000			-45.792			-4.579
78001.000			-45.790			-4.579
78100.000			-45.788			-4.579
78200.000			-45.786			-4.579
78301.000			-45.785			-4.578
78401.000			-45.784			-4.578
78501.000			-45.782			-4.578
78602.000			-45.779			-4.578
78700.000			-45.777			-4.578
78800.000			-45.775			-4.578
78901.000			-45.775			-4.577
79000.000			-45.773			-4.577
79100.000			-45.772			-4.577
79201.000			-45.770			-4.577
79301.000			-45.768			-4.577
79401.000			-45.766			-4.577
79501.000			-45.765			-4.576
79600.000			-45.764			-4.576
79700.000			-45.762			-4.576
79801.000			-45.760			-4.576
79900.000			-45.759			-4.576
80000.000			-45.757			-4.576
80100.000			-45.755			-4.575
80201.000			-45.753			-4.575
80302.000			-45.750			-4.575
80400.000			-45.749			-4.575
80500.000			-45.749			-4.575
80601.000			-45.748			-4.575
80700.000			-45.747			-4.575
80800.000			-45.744			-4.574
80901.000			-45.742			-4.574
81001.000			-45.741			-4.574
81101.000			-45.739			-4.574
81201.000			-45.738			-4.574
81300.000			-45.737			-4.574
81400.000			-45.735			-4.574
81501.000			-45.733			-4.573
81600.000			-45.731			-4.573
81700.000			-45.729			-4.573
81802.000			-45.728			-4.573
81901.000			-45.727			-4.573
82000.000			-45.725			-4.573
82101.000			-45.723			-4.572
82200.000			-45.722			-4.572
82300.000			-45.720			-4.572
82401.000			-45.719			-4.572
82500.000			-45.718			-4.572
82601.000			-45.716			-4.572
82702.000			-45.715			-4.571
82800.000			-45.713			-4.571
82900.000			-45.712			-4.571
83001.000			-45.709			-4.571
83100.000			-45.708			-4.571
83200.000			-45.707			-4.571
83300.000			-45.706			-4.571
83401.000			-45.705			-4.570
83502.000			-45.704			-4.570
83600.000			-45.703			-4.570
83700.000			-45.700			-4.570
83801.000			-45.698			-4.570
83900.000			-45.696			-4.570
84000.000			-45.695			-4.570
84101.000			-45.694			-4.569
84201.000			-45.693			-4.569
84301.000			-45.691			-4.569
84402.000			-45.688			-4.569
84500.000			-45.687			-4.569
84600.000			-45.685			-4.569
84701.000			-45.684			-4.568
84800.000			-45.683			-4.568
84900.000			-45.681			-4.568
85001.000			-45.680			-4.568
85101.000			-45.680			-4.568
85201.000			-45.676			-4.568
85301.000			-45.675			-4.567
85400.000			-45.674			-4.567
85500.000			-45.672			-4.567
85601.000			-45.671			-4.567
85700.000			-45.669			-4.567
85800.000			-45.669			-4.567
85902.000			-45.666			-4.567
86001.000			-45.665			-4.566
86100.000			-45.663			-4.566
86201.000			-45.662			-4.566
86300.000			-45.661			-4.566
86400.000			-45.660			-4.566
86500.000			-45.657			-4.566
86600.000			-45.656			-4.566
86701.000			-45.654			-4.565
86801.000			-45.654			-4.565
86901.000			-45.652			-4.565
87001.000			-45.651			-4.565
87100.000			-45.650			-4.565
87200.000			-45.648			-4.565
87301.000			-45.645			-4.564
87400.000			-45.644			-4.564
87500.000			-45.642			-4.564
87602.000			-45.640			-4.564
87701.000			-45.639			-4.564
87800.000			-45.637			-4.564
87901.000			-45.637			-4.564
88000.000			-45.636			-4.564
88100.000			-45.634			-4.563
88201.000			-45.632			-4.563
88300.000			-45.631			-4.563
88400.000			-45.630			-4.563
88502.000			-45.629			-4.563
88601.000			-45.628			-4.563
88700.000			-45.627			-4.563
88801.000			-45.624			-4.562
88900.000			-45.623			-4.562
89000.000			-45.622			-4.562
89101.000			-45.620			-4.562
89200.000			-45.619			-4.562
89301.000			-45.618			-4.562
89402.000			-45.617			-4.562
89500.000			-45.614			-4.561
89600.000			-45.613			-4.561
89700.000			-45.612			-4.561
89800.000			-45.610			-4.561
89901.000			-45.609			-4.561
90000.000			-45.608			-4.561
90100.000			-45.606			-4.561
90202.000			-45.604			-4.560
90301.000			-45.602			-4.560
90400.000			-45.601			-4.560
90501.000			-45.601			-4.560
90600.000			-45.600			-4.560
90700.000			-45.598			-4.560
90801.000			-45.596			-4.560
90900.000			-45.594			-4.559
91001.000			-45.593			-4.559
91102.000			-45.593			-4.559
91200.000			-45.591			-4.559
91300.000			-45.589			-4.559
91401.000			-45.589			-4.559
91500.000			-45.588			-4.559
91600.000			-45.586			-4.559
91701.000			-45.583			-4.558
91801.000			-45.582			-4.558
91901.000			-45.581			-4.558
92001.000			-45.580			-4.558
92100.000			-45.579			-4.558
92200.000			-45.578			-4.558
92301.000			-45.577			-4.558
92400.000			-45.574			-4.557
92500.000			-45.572			-4.557
92602.000			-45.571			-4.557
92701.000			-45.570			-4.557
92802.000			-45.569			-4.557
92900.000			-45.569			-4.557
93000.000			-45.567			-4.557
93101.000			-45.564			-4.556
93200.000			-45.564			-4.556
93300.000			-45.561			-4.556
93401.000			-45.560			-4.556
93501.000			-45.560			-4.556
93601.000			-45.559			-4.556
93701.000			-45.557			-4.556
93800.000			-45.554			-4.555
93900.000			-45.554			-4.555
94001.000			-45.552			-4.555
94100.000			-45.551			-4.555
94200.000			-45.550			-4.555
94302.000			-45.549			-4.555
94401.000			-45.548			-4.555
94500.000			-45.547			-4.555
94601.000			-45.544			-4.554
94700.000			-45.543			-4.554
94800.000			-45.542			-4.554
94901.000			-45.540			-4.554
95000.000			-45.539			-4.554
95100.000			-45.538			-4.554
95202.000			-45.537			-4.554
95301.000			-45.535			-4.553
95400.000			-45.534			-4.553
95501.000			-45.533			-4.553
95600.000			-45.531			-4.553
95700.000			-45.530			-4.553
95801.000			-45.530			-4.553
95900.000			-45.528			-4.553
96002.000			-45.525			-4.552
96101.000			-45.524			-4.552
96200.000			-45.523			-4.552
96301.000			-45.521			-4.552
96400.000			-45.520			-4.552
96500.000			-45.519			-4.552
96601.000			-45.518			-4.552
96700.000			-45.516			-4.552
96801.000			-45.515			-4.552
96902.000			-45.515			-4.551
97001.000			-45.513			-4.551
97100.000			-45.512			-4.551
97201.000			-45.511			-4.551
97300.000			-45.509			-4.551
97400.000			-45.507			-4.551
97501.000			-45.505			-4.550
97600.000			-45.504			-4.550
97701.000			-45.503			-4.550
97802.000			-45.503			-4.550
97900.000			-45.502			-4.550
98000.000			-45.501			-4.550
98101.000			-45.499			-4.550
98200.000			-45.497			-4.550
98300.000			-45.495			-4.550
98401.000			-45.494			-4.549
98501.000			-45.492			-4.549
98601.000			-45.492			-4.549
98701.000			-45.491			-4.549
98800.000			-45.489			-4.549
98900.000			-45.487			-4.549
99001.000			-45.486			-4.549
99100.000			-45.484			-4.548
99200.000			-45.484			-4.548
99300.000			-45.482			-4.548
99401.000			-45.481			-4.548
99502.000			-45.480			-4.548
99600.000			-45.478			-4.548
99700.000			-45.477			-4.548
99801.000			-45.476			-4.548
99900.000			-45.475			-4.548
100000.000			-45.475			-4.547
100101.000			-45.473			-4.547
100201.000			-45.472			-4.547
100301.000			-45.471			-4.547
100401.000			-45.468			-4.547
100500.000			-45.467			-4.547
100600.000			-45.466			-4.547
100701.000			-45.464			-4.546
100800.000			-45.464			-4.546
100900.000			-45.463			-4.546
101001.000			-45.461			-4.546
101101.000			-45.460			-4.546
101201.000			-45.458			-4.546
101301.000			-45.456			-4.546
101400.000			-45.456			-4.546
101500.000			-45.455			-4.545
101601.000			-45.454			-4.545
101700.000			-45.454			-4.545
101800.000			-45.450			-4.545
101902.000			-45.450			-4.545
102001.000			-45.448			-4.545
102100.000			-45.447			-4.545
102201.000			-45.447			-4.545
102300.000			-45.446			-4.545
102400.000			-45.444			-4.544
102500.000			-45.443			-4.544
102600.000			-45.442			-4.544
102702.000			-45.441			-4.544
102801.000			-45.439			-4.544
102901.000			-45.437			-4.544
103001.000			-45.437			-4.544
103100.000			-45.436			-4.544
103200.000			-45.435			-4.543
103301.000			-45.432			-4.543
103400.000			-45.431			-4.543
103500.000			-45.430			-4.543
103602.000			-45.428			-4.543
103701.000			-45.428			-4.543
103800.000			-45.428			-4.543
103901.000			-45.427			-4.543
104000.000			-45.423			-4.542
104100.000			-45.422			-4.542
104201.000			-45.421			-4.542
104300.000			-45.420			-4.542
104401.000			-45.418			-4.542
104502.000			-45.417			-4.542
104600.000			-45.416			-4.542
104700.000			-45.416			-4.542
104801.000			-45.414			-4.541
104900.000			-45.413			-4.541
105000.000			-45.412			-4.541
105101.000			-45.411			-4.541
105201.000			-45.410			-4.541
105301.000			-45.409			-4.541
105401.000			-45.406			-4.541
105500.000			-45.404			-4.540
105600.000			-45.403			-4.540
105700.000			-45.404			-4.540
105800.000			-45.402			-4.540
105901.000			-45.401			-4.540
106001.000			-45.400			-4.540
106101.000			-45.398			-4.540
106202.000			-45.398			-4.540
106300.000			-45.395			-4.540
106400.000			-45.394			-4.539
106501.000			-45.393			-4.539
106600.000			-45.392			-4.539
106700.000			-45.391			-4.539
106801.000			-45.390			-4.539
106901.000			-45.388			-4.539
107001.000			-45.387			-4.539
107101.000			-45.387			-4.539
107200.000			-45.385			-4.539
107300.000			-45.384			-4.538
107401.000			-45.383			-4.538
107500.000			-45.381			-4.538
107600.000			-45.379			-4.538
107701.000			-45.379			-4.538
107801.000			-45.377			-4.538
107901.000			-45.376			-4.538
108001.000			-45.376			-4.538
108100.000			-45.374			-4.537
108200.000			-45.373			-4.537
108301.000			-45.372			-4.537
108400.000			-45.371			-4.537
108500.000			-45.368			-4.537
108602.000			-45.368			-4.537
108701.000			-45.367			-4.537
108800.000			-45.366			-4.537
108900.000			-45.366			-4.537
109000.000			-45.363			-4.536
109101.000			-45.362			-4.536
109200.000			-45.360			-4.536
109300.000			-45.358			-4.536
109401.000			-45.358			-4.536
109501.000			-45.357			-4.536
109601.000			-45.356			-4.536
109701.000			-45.356			-4.536
109800.000			-45.353			-4.535
109900.000			-45.352			-4.535
110001.000			-45.351			-4.535
110100.000			-45.350			-4.535
110200.000			-45.349			-4.535
110302.000			-45.348			-4.535
110401.000			-45.347			-4.535
110500.000			-45.344			-4.534
110601.000			-45.343			-4.534
110700.000			-45.342			-4.534
110800.000			-45.341			-4.534
110901.000			-45.340			-4.534
111000.000			-45.340			-4.534
111101.000			-45.339			-4.534
111202.000			-45.336			-4.534
111301.000			-45.335			-4.533
111400.000			-45.334			-4.533
111501.000			-45.333			-4.533
111600.000			-45.332			-4.533
111700.000			-45.332			-4.533
111801.000			-45.331			-4.533
111900.000			-45.329			-4.533
112002.000			-45.328			-4.533
112101.000			-45.327			-4.533
112200.000			-45.326			-4.533
112301.000			-45.324			-4.532
112400.000			-45.323			-4.532
112500.000			-45.323			-4.532
112601.000			-45.321			-4.532
112700.000			-45.319			-4.532
112801.000			-45.318			-4.532
112902.000			-45.317			-4.532
113000.000			-45.316			-4.532
113100.000			-45.315			-4.531
113201.000			-45.314			-4.531
113300.000			-45.314			-4.531
113400.000			-45.311			-4.531
113501.000			-45.311			-4.531
113601.000			-45.310			-4.531
113701.000			-45.308			-4.531
113801.000			-45.306			-4.531
113900.000			-45.306			-4.531
114000.000			-45.306			-4.531
114101.000			-45.303			-4.530
114200.000			-45.302			-4.530
114300.000			-45.301			-4.530
114402.000			-45.300			-4.530
114501.000			-45.298			-4.530
114600.000			-45.298			-4.530
114701.000			-45.297			-4.530
114800.000			-45.295			-4.530
114900.000			-45.294			-4.529
115001.000			-45.293			-4.529
115100.000			-45.293			-4.529
115200.000			-45.291			-4.529
115302.000			-45.290			-4.529
115401.000			-45.290			-4.529
115501.000			-45.289			-4.529
115600.000			-45.285			-4.529
115700.000			-45.285			-4.529
115801.000			-45.284			-4.528
115900.000			-45.283			-4.528
116000.000			-45.281			-4.528
116101.000			-45.282			-4.528
116201.000			-45.280			-4.528
116301.000			-45.280			-4.528
116401.000			-45.278			-4.528
116500.000			-45.277			-4.528
116600.000			-45.277			-4.528
116701.000			-45.275			-4.528
116800.000			-45.274			-4.527
116900.000			-45.273			-4.527
117002.000			-45.271			-4.527
117101.000			-45.271			-4.527
117200.000			-45.269			-4.527
117301.000			-45.268			-4.527
117400.000			-45.267			-4.527
117500.000			-45.266			-4.527
117601.000			-45.265			-4.526
117700.000			-45.263			-4.526
117800.000			-45.261			-4.526
117902.000			-45.261			-4.526
118001.000			-45.260			-4.526
118100.000			-45.259			-4.526
118201.000			-45.258			-4.526
118300.000			-45.257			-4.526
118400.000			-45.255			-4.526
118500.000			-45.255			-4.526
118600.000			-45.254			-4.525
118701.000			-45.253			-4.525
118801.000			-45.251			-4.525
118901.000			-45.251			-4.525
119001.000			-45.250			-4.525
119100.000			-45.249			-4.525
119200.000			-45.246			-4.525
119301.000			-45.245			-4.524
119400.000			-45.245			-4.524
119500.000			-45.244			-4.524
119602.000			-45.243			-4.524
119701.000			-45.243			-4.524
119800.000			-45.241			-4.524
119901.000			-45.239			-4.524
120000.000			-45.239			-4.524
120100.000			-45.238			-4.524
120201.000			-45.236			-4.524
120300.000			-45.235			-4.524
120401.000			-45.235			-4.523
120502.000			-45.234			-4.523
120601.000			-45.232			-4.523
120700.000			-45.230			-4.523
120801.000			-45.229			-4.523
120900.000			-45.228			-4.523
121000.000			-45.228			-4.523
121101.000			-45.227			-4.523
121200.000			-45.225			-4.523
121301.000			-45.224			-4.522
121402.000			-45.224			-4.522
121500.000			-45.223			-4.522
121600.000			-45.222			-4.522
121700.000			-45.221			-4.522
121800.000			-45.221			-4.522
121901.000			-45.220			-4.522
122000.000			-45.218			-4.522
122101.000			-45.217			-4.522
122202.000			-45.215			-4.521
122300.000			-45.215			-4.521
122400.000			-45.214			-4.521
122501.000			-45.213			-4.521
122600.000			-45.213			-4.521
122700.000			-45.211			-4.521
122801.000			-45.208			-4.521
122901.000			-45.208			-4.521
123001.000			-45.207			-4.521
123101.000			-45.206			-4.521
123200.000			-45.205			-4.521
123300.000			-45.205			-4.520
123401.000			-45.204			-4.520
123500.000			-45.202			-4.520
123600.000			-45.200			-4.520
123702.000			-45.199			-4.520
123801.000			-45.199			-4.520
123900.000			-45.198			-4.520
124001.000			-45.196			-4.520
124100.000			-45.195			-4.519
124200.000			-45.194			-4.519
124301.000			-45.193			-4.519
124400.000			-45.192			-4.519
124500.000			-45.191			-4.519
124602.000			-45.191			-4.519
124701.000			-45.190			-4.519
124800.000			-45.190			-4.519
124900.000			-45.188			-4.519
125000.000			-45.185			-4.519
125101.000			-45.185			-4.519
125200.000			-45.184			-4.518
125300.000			-45.183			-4.518
125402.000			-45.182			-4.518
125501.000			-45.181			-4.518
125600.000			-45.182			-4.518
125701.000			-45.179			-4.518
125800.000			-45.178			-4.518
125900.000			-45.177			-4.518
126001.000			-45.177			-4.518
126100.000			-45.176			-4.518
126200.000			-45.174			-4.517
126302.000			-45.173			-4.517
126401.000			-45.171			-4.517
126500.000			-45.170			-4.517
126601.000			-45.169			-4.517
126700.000			-45.169			-4.517
126800.000			-45.168			-4.517
126901.000			-45.168			-4.517
127000.000			-45.167			-4.517
127101.000			-45.164			-4.516
127202.000			-45.163			-4.516
127300.000			-45.162			-4.516
127400.000			-45.162			-4.516
127501.000			-45.161			-4.516
127600.000			-45.160			-4.516
127700.000			-45.159			-4.516
127801.000			-45.157			-4.516
127901.000			-45.156			-4.516
128002.000			-45.156			-4.516
128101.000			-45.155			-4.515
128200.000			-45.154			-4.515
128301.000			-45.153			-4.515
128400.000			-45.152			-4.515
128500.000			-45.151			-4.515
128601.000			-45.149			-4.515
128700.000			-45.149			-4.515
128801.000			-45.148			-4.515
128902.000			-45.147			-4.515
129001.000			-45.146			-4.515
129100.000			-45.145			-4.514
129201.000			-45.144			-4.514
129300.000			-45.142			-4.514
129400.000			-45.142			-4.514
129501.000			-45.141			-4.514
129600.000			-45.140			-4.514
129701.000			-45.138			-4.514
129802.000			-45.138			-4.514
129900.000			-45.136			-4.514
130000.000			-45.135			-4.514
130101.000			-45.135			-4.513
130200.000			-45.134			-4.513
130300.000			-45.133			-4.513
130401.000			-45.132			-4.513
130501.000			-45.131			-4.513
130601.000			-45.130			-4.513
130701.000			-45.128			-4.513
130800.000			-45.128			-4.513
130900.000			-45.127			-4.513
131001.000			-45.126			-4.513
131100.000			-45.125			-4.512
131200.000			-45.123			-4.512
131302.000			-45.123			-4.512
131401.000			-45.121			-4.512
131502.000			-45.121			-4.512
131600.000			-45.120			-4.512
131700.000			-45.119			-4.512
131801.000			-45.118			-4.512
131900.000			-45.116			-4.512
132000.000			-45.116			-4.512
132101.000			-45.115			-4.512
132200.000			-45.113			-4.511
132301.000			-45.113			-4.511
132402.000			-45.112			-4.511
132500.000			-45.111			-4.511
132600.000			-45.109			-4.511
132701.000			-45.109			-4.511
132800.000			-45.108			-4.511
132900.000			-45.106			-4.511
133001.000			-45.105			-4.510
133101.000			-45.104			-4.510
133201.000			-45.103			-4.510
133302.000			-45.103			-4.510
133400.000			-45.102			-4.510
133500.000			-45.101			-4.510
133601.000			-45.100			-4.510
133700.000			-45.098			-4.510
133800.000			-45.098			-4.510
133901.000			-45.097			-4.510
134001.000			-45.095			-4.509
134101.000			-45.095			-4.510
134202.000			-45.095			-4.510
134300.000			-45.093			-4.509
134400.000			-45.092			-4.509
134500.000			-45.090			-4.509
134600.000			-45.090			-4.509
134701.000			-45.089			-4.509
134800.000			-45.088			-4.509
134900.000			-45.088			-4.509
135002.000			-45.086			-4.509
135101.000			-45.085			-4.508
135200.000			-45.085			-4.508
135301.000			-45.084			-4.508
135400.000			-45.083			-4.508
135500.000			-45.081			-4.508
135601.000			-45.080			-4.508
135700.000			-45.080			-4.508
135800.000			-45.078			-4.508
135902.000			-45.078			-4.508
136001.000			-45.077			-4.508
136101.000			-45.075			-4.508
136201.000			-45.075			-4.507
136300.000			-45.074			-4.507
136400.000			-45.074			-4.507
136501.000			-45.072			-4.507
136600.000			-45.071			-4.507
136700.000			-45.071			-4.507
136802.000			-45.070			-4.507
136901.000			-45.069			-4.507
137001.000			-45.069			-4.507
137101.000			-45.069			-4.507
137200.000			-45.066			-4.507
137300.000			-45.065			-4.506
137401.000			-45.065			-4.506
137500.000			-45.065			-4.506
137600.000			-45.064			-4.506
137700.000			-45.063			-4.506
137801.000			-45.060			-4.506
137902.000			-45.058			-4.506
138000.000			-45.059			-4.506
138100.000			-45.059			-4.506
138201.000			-45.057			-4.506
138300.000			-45.056			-4.506
138400.000			-45.055			-4.506
138501.000			-45.055			-4.506
138600.000			-45.054			-4.505
138701.000			-45.051			-4.505
138802.000			-45.051			-4.505
138901.000			-45.050			-4.505
139000.000			-45.050			-4.505
139101.000			-45.048			-4.505
139200.000			-45.046			-4.505
139300.000			-45.046			-4.505
139401.000			-45.045			-4.504
139500.000			-45.044			-4.504
139600.000			-45.044			-4.504
139702.000			-45.043			-4.504
139801.000			-45.042			-4.504
139900.000			-45.041			-4.504
140001.000			-45.040			-4.504
140100.000			-45.038			-4.504
140200.000			-45.038			-4.504
140301.000			-45.037			-4.504
140400.000			-45.036			-4.504
140500.000			-45.034			-4.503
140602.000			-45.033			-4.503
140701.000			-45.034			-4.503
140800.000			-45.032			-4.503
140900.000			-45.032			-4.503
141000.000			-45.031			-4.503
141101.000			-45.030			-4.503
141200.000			-45.029			-4.503
141300.000			-45.029			-4.503
141402.000			-45.027			-4.503
141501.000			-45.026			-4.503
141601.000			-45.026			-4.503
141701.000			-45.024			-4.502
141800.000			-45.022			-4.502
141900.000			-45.021			-4.502
142001.000			-45.022			-4.502
142100.000			-45.022			-4.502
142200.000			-45.021			-4.502
142302.000			-45.018			-4.502
142401.000			-45.017			-4.502
142501.000			-45.017			-4.502
142601.000			-45.016			-4.502
142700.000			-45.015			-4.502
142800.000			-45.015			-4.501
142901.000			-45.014			-4.501
143000.000			-45.011			-4.501
143100.000			-45.011			-4.501
143202.000			-45.011			-4.501
143301.000			-45.010			-4.501
143401.000			-45.010			-4.501
143501.000			-45.008			-4.501
143600.000			-45.007			-4.501
143700.000			-45.006			-4.501
143801.000			-45.005			-4.501
143900.000			-45.004			-4.500
144000.000			-45.004			-4.500
144102.000			-45.004			-4.500
144201.000			-45.003			-4.500
144302.000			-45.002			-4.500
144400.000			-45.001			-4.500
144500.000			-44.999			-4.500
144601.000			-44.999			-4.500
144700.000			-44.997			-4.500
144800.000			-44.996			-4.500
144901.000			-44.995			-4.500
145000.000			-44.995			-4.499
145101.000			-44.994			-4.499
145202.000			-44.992			-4.499
145300.000			-44.992			-4.499
145400.000			-44.991			-4.499
145501.000			-44.990			-4.499
145600.000			-44.990			-4.499
145700.000			-44.990			-4.499
145801.000			-44.989			-4.499
145900.000			-44.988			-4.499
146000.000			-44.987			-4.499
146102.000			-44.986			-4.499
146201.000			-44.984			-4.498
146300.000			-44.985			-4.498
146401.000			-44.984			-4.498
146500.000			-44.981			-4.498
146600.000			-44.980			-4.498
146701.000			-44.979			-4.498
146800.000			-44.979			-4.498
146900.000			-44.979			-4.498
147001.000			-44.979			-4.498
147101.000			-44.977			-4.498
147202.000			-44.976			-4.498
147301.000			-44.974			-4.497
147400.000			-44.974			-4.497
147501.000			-44.972			-4.497
147600.000			-44.972			-4.497
147700.000			-44.970			-4.497
147801.000			-44.970			-4.497
147900.000			-44.969			-4.497
148000.000			-44.969			-4.497
148102.000			-44.967			-4.497
148201.000			-44.966			-4.497
148300.000			-44.965			-4.497
148401.000			-44.965			-4.496
148500.000			-44.965			-4.496
148600.000			-44.965			-4.496
148701.000			-44.963			-4.496
148800.000			-44.960			-4.496
148900.000			-44.960			-4.496
149002.000			-44.959			-4.496
149101.000			-44.959			-4.496
149201.000			-44.958			-4.496
149301.000			-44.958			-4.496
149400.000			-44.957			-4.496
149500.000			-44.956			-4.496
149601.000			-44.954			-4.495
149700.000			-44.954			-4.495
149800.000			-44.953			-4.495
149901.000			-44.952			-4.495
150001.000			-44.952			-4.495
150101.000			-44.951			-4.495
150202.000			-44.950			-4.495
150300.000			-44.949			-4.495
150400.000			-44.947			-4.495
150500.000			-44.946			-4.495
150600.000			-44.946			-4.495
150701.000			-44.945			-4.494
150800.000			-44.945			-4.494
150900.000			-44.944			-4.494
151002.000			-44.942			-4.494
151101.000			-44.942			-4.494
151200.000			-44.941			-4.494
151301.000			-44.939			-4.494
151400.000			-44.939			-4.494
151500.000			-44.938			-4.494
151601.000			-44.938			-4.494
151700.000			-44.937			-4.494
151800.000			-44.936			-4.494
151902.000			-44.934			-4.493
152001.000			-44.934			-4.493
152101.000			-44.934			-4.493
152201.000			-44.933			-4.493
152300.000			-44.932			-4.493
152400.000			-44.930			-4.493
152501.000			-44.929			-4.493
152600.000			-44.929			-4.493
152700.000			-44.928			-4.493
152801.000			-44.926			-4.493
152901.000			-44.926			-4.493
153001.000			-44.926			-4.493
153101.000			-44.924			-4.492
153200.000			-44.923			-4.492
153300.000			-44.923			-4.492
153401.000			-44.923			-4.492
153500.000			-44.922			-4.492
153600.000			-44.921			-4.492
153700.000			-44.920			-4.492
153801.000			-44.918			-4.492
153902.000			-44.917			-4.492
154001.000			-44.916			-4.492
154100.000			-44.916			-4.492
154201.000			-44.914			-4.491
154300.000			-44.913			-4.491
154400.000			-44.913			-4.491
154501.000			-44.912			-4.491
154600.000			-44.911			-4.491
154701.000			-44.911			-4.491
154802.000			-44.910			-4.491
154901.000			-44.909			-4.491
155000.000			-44.909			-4.491
155101.000			-44.907			-4.491
155200.000			-44.906			-4.491
155300.000			-44.906			-4.491
155401.000			-44.906			-4.491
155500.000			-44.905			-4.491
155600.000			-44.905			-4.490
155702.000			-44.904			-4.490
155801.000			-44.902			-4.490
155900.000			-44.901			-4.490
156001.000			-44.900			-4.490
156100.000			-44.899			-4.490
156200.000			-44.898			-4.490
156301.000			-44.898			-4.490
156400.000			-44.898			-4.490
156500.000			-44.897			-4.490
156602.000			-44.896			-4.490
156701.000			-44.893			-4.489
156802.000			-44.893			-4.489
156900.000			-44.892			-4.489
157000.000			-44.892			-4.489
157101.000			-44.891			-4.489
157200.000			-44.891			-4.489
157300.000			-44.890			-4.489
157401.000			-44.889			-4.489
157500.000			-44.887			-4.489
157601.000			-44.887			-4.489
157702.000			-44.886			-4.489
157801.000			-44.884			-4.488
157900.000			-44.884			-4.488
158001.000			-44.884			-4.488
158100.000			-44.883			-4.488
158200.000			-44.882			-4.488
158301.000			-44.882			-4.488
158400.000			-44.880			-4.488
158500.000			-44.881			-4.488
158602.000			-44.880			-4.488
158701.000			-44.878			-4.488
158801.000			-44.877			-4.488
158901.000			-44.876			-4.488
159000.000			-44.875			-4.488
159100.000			-44.875			-4.487
159201.000			-44.875			-4.487
159300.000			-44.874			-4.487
159400.000			-44.873			-4.487
159501.000			-44.872			-4.487
159601.000			-44.871			-4.487
159701.000			-44.871			-4.487
159802.000			-44.870			-4.487
159900.000			-44.868			-4.487
160000.000			-44.868			-4.487
160100.000			-44.868			-4.487
160200.000			-44.867			-4.487
160301.000			-44.865			-4.486
160400.000			-44.863			-4.486
160500.000			-44.862			-4.486
160602.000			-44.862			-4.486
160701.000			-44.861			-4.486
160800.000			-44.861			-4.486
160901.000			-44.861			-4.486
161000.000			-44.859			-4.486
161100.000			-44.859			-4.486
161201.000			-44.858			-4.486
161300.000			-44.857			-4.486
161400.000			-44.856			-4.486
161502.000			-44.856			-4.486
161601.000			-44.856			-4.486
161701.000			-44.854			-4.485
161801.000			-44.853			-4.485
161900.000			-44.852			-4.485
162000.000			-44.851			-4.485
162101.000			-44.851			-4.485
162200.000			-44.851			-4.485
162300.000			-44.850			-4.485
162401.000			-44.849			-4.485
162501.000			-44.849			-4.485
162601.000			-44.847			-4.485
162701.000			-44.846			-4.485
162800.000			-44.845			-4.485
162900.000			-44.845			-4.485
163001.000			-44.843			-4.484
163100.000			-44.842			-4.484
163200.000			-44.842			-4.484
163300.000			-44.841			-4.484
163401.000			-44.841			-4.484
163502.000			-44.841			-4.484
163601.000			-44.840			-4.484
163700.000			-44.839			-4.484
163801.000			-44.838			-4.484
163900.000			-44.837			-4.484
164000.000			-44.836			-4.484
164101.000			-44.835			-4.483
164200.000			-44.834			-4.483
164300.000			-44.834			-4.483
164402.000			-44.833			-4.483
164501.000			-44.832			-4.483
164600.000			-44.831			-4.483
164701.000			-44.830			-4.483
164800.000			-44.830			-4.483
164900.000			-44.829			-4.483
165001.000			-44.829			-4.483
165100.000			-44.827			-4.483
165200.000			-44.827			-4.483
165302.000			-44.826			-4.483
165401.000			-44.824			-4.482
165501.000			-44.824			-4.482
165601.000			-44.823			-4.482
165700.000			-44.822			-4.482
165800.000			-44.822			-4.482
165901.000			-44.821			-4.482
166000.000			-44.820			-4.482
166100.000			-44.819			-4.482
166201.000			-44.818			-4.482
166301.000			-44.817			-4.482
166402.000			-44.816			-4.482
166501.000			-44.815			-4.481
166600.000			-44.814			-4.481
166701.000			-44.813			-4.481
166800.000			-44.813			-4.481
166900.000			-44.812			-4.481
167001.000			-44.811			-4.481
167100.000			-44.811			-4.481
167200.000			-44.811			-4.481
167302.000			-44.810			-4.481
167401.000			-44.809			-4.481
167500.000			-44.808			-4.481
167601.000			-44.807			-4.481
167700.000			-44.807			-4.481
167800.000			-44.806			-4.481
167901.000			-44.806			-4.481
168000.000			-44.805			-4.481
168100.000			-44.803			-4.480
168202.000			-44.804			-4.480
168301.000			-44.803			-4.480
168401.000			-44.801			-4.480
168501.000			-44.800			-4.480
168600.000			-44.800			-4.480
168700.000			-44.800			-4.480
168801.000			-44.798			-4.480
168900.000			-44.797			-4.480
169000.000			-44.797			-4.480
169101.000			-44.796			-4.480
169201.000			-44.795			-4.480
169301.000			-44.795			-4.479
169402.000			-44.793			-4.479
169500.000			-44.793			-4.479
169600.000			-44.793			-4.479
169700.000			-44.792			-4.479
169800.000			-44.790			-4.479
169901.000			-44.790			-4.479
170000.000			-44.789			-4.479
170100.000			-44.788			-4.479
170202.000			-44.786			-4.479
170301.000			-44.787			-4.479
170401.000			-44.786			-4.479
170501.000			-44.784			-4.478
170600.000			-44.784			-4.478
170700.000			-44.784			-4.478
170801.000			-44.783			-4.478
170900.000			-44.782			-4.478
171000.000			-44.781			-4.478
171101.000			-44.781			-4.478
171201.000			-44.780			-4.478
171301.000			-44.779			-4.478
171401.000			-44.779			-4.478
171500.000			-44.778			-4.478
171600.000			-44.777			-4.478
171701.000			-44.776			-4.478
171800.000			-44.775			-4.478
171900.000			-44.774			-4.477
172001.000			-44.773			-4.477
172101.000			-44.772			-4.477
172201.000			-44.772			-4.477
172302.000			-44.772			-4.477
172400.000			-44.770			-4.477
172500.000			-44.769			-4.477
172601.000			-44.770			-4.477
172700.000			-44.768			-4.477
172800.000			-44.768			-4.477
172900.000			-44.768			-4.477
173000.000			-44.766			-4.477
173102.000			-44.765			-4.476
173201.000			-44.766			-4.477
173301.000			-44.764			-4.476
173401.000			-44.763			-4.476
173500.000			-44.762			-4.476
173600.000			-44.761			-4.476
173701.000			-44.760			-4.476
173800.000			-44.759			-4.476
173900.000			-44.759			-4.476
174001.000			-44.759			-4.476
174101.000			-44.758			-4.476
174201.000			-44.757			-4.476
174301.000			-44.757			-4.476
174400.000			-44.755			-4.476
174500.000			-44.754			-4.475
174601.000			-44.753			-4.475
174700.000			-44.753			-4.475
174800.000			-44.752			-4.475
174901.000			-44.752			-4.475
175001.000			-44.752			-4.475
175101.000			-44.751			-4.475
175202.000			-44.749			-4.475
175300.000			-44.748			-4.475
175400.000			-44.749			-4.475
175501.000			-44.749			-4.475
175600.000			-44.749			-4.475
175700.000			-44.748			-4.475
175801.000			-44.746			-4.475
175900.000			-44.745			-4.474
176002.000			-44.744			-4.474
176101.000			-44.743			-4.474
176201.000			-44.742			-4.474
176301.000			-44.741			-4.474
176400.000			-44.741			-4.474
176500.000			-44.740			-4.474
176601.000			-44.740			-4.474
176700.000			-44.739			-4.474
176800.000			-44.738			-4.474
176901.000			-44.738			-4.474
177001.000			-44.736			-4.474
177101.000			-44.735			-4.474
177202.000			-44.735			-4.474
177300.000			-44.734			-4.473
177400.000			-44.733			-4.473
177501.000			-44.733			-4.473
177600.000			-44.733			-4.473
177700.000			-44.731			-4.473
177801.000			-44.730			-4.473
177900.000			-44.730			-4.473
178001.000			-44.729			-4.473
178102.000			-44.728			-4.473
178200.000			-44.728			-4.473
178300.000			-44.727			-4.473
178401.000			-44.724			-4.472
178500.000			-44.724			-4.472
178600.000			-44.724			-4.472
178701.000			-44.723			-4.472
178800.000			-44.723			-4.472
178900.000			-44.722			-4.472
179002.000			-44.722			-4.472
179101.000			-44.721			-4.472
179200.000			-44.720			-4.472
179300.000			-44.719			-4.472
179400.000			-44.718			-4.472
179501.000			-44.717			-4.472
179600.000			-44.716			-4.472
179700.000			-44.716			-4.472
179801.000			-44.715			-4.472
179901.000			-44.715			-4.471
180001.000			-44.715			-4.471
180102.000			-44.713			-4.471
180200.000			-44.712			-4.471
180300.000			-44.712			-4.471
180401.000			-44.711			-4.471
180500.000			-44.712			-4.471
180600.000			-44.709			-4.471
180701.000			-44.709			-4.471
180801.000			-44.709			-4.471
180901.000			-44.708			-4.471
181002.000			-44.707			-4.471
181100.000			-44.706			-4.471
181200.000			-44.705			-4.470
181301.000			-44.705			-4.470
181400.000			-44.704			-4.470
181500.000			-44.703			-4.470
181601.000			-44.702			-4.470
181700.000			-44.701			-4.470
181801.000			-44.700			-4.470
181902.000			-44.700			-4.470
182001.000			-44.699			-4.470
182100.000			-44.699			-4.470
182201.000			-44.698			-4.470
182300.000			-44.697			-4.470
182400.000			-44.697			-4.470
182500.000			-44.696			-4.470
182600.000			-44.695			-4.469
182701.000			-44.695			-4.469
182801.000			-44.694			-4.469
182901.000			-44.692			-4.469
183001.000			-44.692			-4.469
183100.000			-44.693			-4.469
183200.000			-44.691			-4.469
183301.000			-44.690			-4.469
183400.000			-44.689			-4.469
183500.000			-44.688			-4.469
183601.000			-44.688			-4.469
183701.000			-44.687			-4.469
183801.000			-44.687			-4.469
183902.000			-44.687			-4.469
184000.000			-44.687			-4.469
184100.000			-44.685			-4.469
184201.000			-44.684			-4.468
184300.000			-44.683			-4.468
184400.000			-44.682			-4.468
184501.000			-44.681			-4.468
184600.000			-44.682			-4.468
184701.000			-44.681			-4.468
184802.000			-44.680			-4.468
184901.000			-44.679			-4.468
185000.000			-44.680			-4.468
185101.000			-44.678			-4.468
185200.000			-44.677			-4.468
185300.000			-44.676			-4.468
185401.000			-44.674			-4.467
185500.000			-44.674			-4.467
185600.000			-44.674			-4.467
185702.000			-44.672			-4.467
185801.000			-44.672			-4.467
185902.000			-44.672			-4.467
186000.000			-44.671			-4.467
186100.000			-44.671			-4.467
186201.000			-44.670			-4.467
186300.000			-44.670			-4.467
186400.000			-44.668			-4.467
186501.000			-44.667			-4.467
186600.000			-44.666			-4.467
186701.000			-44.666			-4.467
186802.000			-44.665			-4.467
186901.000			-44.665			-4.467
187000.000			-44.665			-4.466
187101.000			-44.662			-4.466
187200.000			-44.663			-4.466
187300.000			-44.663			-4.466
187401.000			-44.661			-4.466
187500.000			-44.661			-4.466
187600.000			-44.660			-4.466
187702.000			-44.660			-4.466
187801.000			-44.659			-4.466
187901.000			-44.658			-4.466
188001.000			-44.657			-4.466
188100.000			-44.657			-4.466
188200.000			-44.656			-4.466
188301.000			-44.655			-4.466
188400.000			-44.654			-4.465
188500.000			-44.655			-4.465
188601.000			-44.654			-4.465
188701.000			-44.653			-4.465
188802.000			-44.652			-4.465
188901.000			-44.651			-4.465
189000.000			-44.650			-4.465
189101.000			-44.649			-4.465
189200.000			-44.649			-4.465
189300.000			-44.648			-4.465
189401.000			-44.648			-4.465
189500.000			-44.647			-4.465
189600.000			-44.647			-4.465
189702.000			-44.646			-4.465
189801.000			-44.646			-4.465
189900.000			-44.645			-4.464
190001.000			-44.644			-4.464
190100.000			-44.644			-4.464
190200.000			-44.642			-4.464
190301.000			-44.641			-4.464
190400.000			-44.642			-4.464
190500.000			-44.641			-4.464
190602.000			-44.640			-4.464
190701.000			-44.637			-4.464
190801.000			-44.637			-4.464
190901.000			-44.637			-4.464
191000.000			-44.636			-4.464
191100.000			-44.636			-4.464
191201.000			-44.635			-4.464
191300.000			-44.634			-4.463
191400.000			-44.633			-4.463
191501.000			-44.633			-4.463
191601.000			-44.632			-4.463
191701.000			-44.632			-4.463
191801.000			-44.632			-4.463
191900.000			-44.630			-4.463
192000.000			-44.628			-4.463
192100.000			-44.629			-4.463
192200.000			-44.628			-4.463
192301.000			-44.627			-4.463
192400.000			-44.627			-4.463
192500.000			-44.626			-4.463
192602.000			-44.626			-4.463
192701.000			-44.626			-4.463
192800.000			-44.625			-4.463
192901.000			-44.625			-4.462
193000.000			-44.623			-4.462
193100.000			-44.623			-4.462
193201.000			-44.622			-4.462
193300.000			-44.622			-4.462
193400.000			-44.621			-4.462
193502.000			-44.620			-4.462
193601.000			-44.618			-4.462
193700.000			-44.618			-4.462
193801.000			-44.619			-4.462
193900.000			-44.617			-4.462
194000.000			-44.616			-4.462
194101.000			-44.615			-4.462
194200.000			-44.615			-4.461
194300.000			-44.615			-4.461
194402.000			-44.614			-4.461
194501.000			-44.612			-4.461
194601.000			-44.612			-4.461
194701.000			-44.612			-4.461
194800.000			-44.611			-4.461
194900.000			-44.610			-4.461
195001.000			-44.608			-4.461
195100.000			-44.608			-4.461
195200.000			-44.608			-4.461
195300.000			-44.607			-4.461
195401.000			-44.608			-4.461
195502.000			-44.607			-4.461
195600.000			-44.606			-4.461
195700.000			-44.605			-4.460
195801.000			-44.604			-4.460
195900.000			-44.604			-4.460
196000.000			-44.603			-4.460
196101.000			-44.603			-4.460
196200.000			-44.602			-4.460
196301.000			-44.602			-4.460
196402.000			-44.602			-4.460
196501.000			-44.601			-4.460
196600.000			-44.599			-4.460
196701.000			-44.597			-4.460
196800.000			-44.597			-4.460
196900.000			-44.597			-4.460
197001.000			-44.596			-4.460
197100.000			-44.596			-4.460
197200.000			-44.595			-4.459
197302.000			-44.594			-4.459
197401.000			-44.595			-4.459
197501.000			-44.594			-4.459
197601.000			-44.593			-4.459
197700.000			-44.591			-4.459
197800.000			-44.590			-4.459
197901.000			-44.590			-4.459
198000.000			-44.590			-4.459
198100.000			-44.590			-4.459
198201.000			-44.589			-4.459
198301.000			-44.588			-4.459
198402.000			-44.588			-4.459
198501.000			-44.586			-4.459
198600.000			-44.586			-4.459
198701.000			-44.585			-4.458
198800.000			-44.584			-4.458
198900.000			-44.583			-4.458
199001.000			-44.583			-4.458
199100.000			-44.582			-4.458
199200.000			-44.581			-4.458
199302.000			-44.580			-4.458
199401.000			-44.580			-4.458
199501.000			-44.581			-4.458
199601.000			-44.580			-4.458
199700.000			-44.579			-4.458
199800.000			-44.578			-4.458
199901.000			-44.578			-4.458
200000.000			-44.577			-4.458
200100.000			-44.576			-4.458
200201.000			-44.575			-4.458
200301.000			-44.574			-4.457
200401.000			-44.574			-4.457
200502.000			-44.574			-4.457
200600.000			-44.574			-4.457
200700.000			-44.573			-4.457
200801.000			-44.571			-4.457
200900.000			-44.570			-4.457
201000.000			-44.570			-4.457
201101.000			-44.570			-4.457
201200.000			-44.568			-4.457
201301.000			-44.568			-4.457
201402.000			-44.568			-4.457
201500.000			-44.567			-4.457
201600.000			-44.567			-4.457
201700.000			-44.566			-4.457
201800.000			-44.563			-4.456
201901.000			-44.563			-4.456
202000.000			-44.563			-4.456
202100.000			-44.562			-4.456
202202.000			-44.562			-4.456
202301.000			-44.561			-4.456
202400.000			-44.561			-4.456
202501.000			-44.560			-4.456
202600.000			-44.560			-4.456
202700.000			-44.559			-4.456
202801.000			-44.559			-4.456
202900.000			-44.559			-4.456
203000.000			-44.557			-4.456
203102.000			-44.557			-4.456
203201.000			-44.556			-4.456
203301.000			-44.556			-4.456
203401.000			-44.556			-4.456
203500.000			-44.555			-4.455
203600.000			-44.554			-4.455
203701.000			-44.552			-4.455
203800.000			-44.551			-4.455
203900.000			-44.551			-4.455
204002.000			-44.551			-4.455
204101.000			-44.550			-4.455
204201.000			-44.550			-4.455
204301.000			-44.549			-4.455
204400.000			-44.547			-4.455
204500.000			-44.547			-4.455
204601.000			-44.546			-4.455
204700.000			-44.547			-4.455
204800.000			-44.546			-4.455
204900.000			-44.545			-4.455
205001.000			-44.544			-4.454
205102.000			-44.543			-4.454
205200.000			-44.543			-4.454
205300.000			-44.542			-4.454
205401.000			-44.541			-4.454
205500.000			-44.541			-4.454
205600.000			-44.541			-4.454
205701.000			-44.540			-4.454
205800.000			-44.540			-4.454
205901.000			-44.539			-4.454
206002.000			-44.538			-4.454
206100.000			-44.538			-4.454
206200.000			-44.537			-4.454
206301.000			-44.537			-4.454
206400.000			-44.536			-4.454
206500.000			-44.535			-4.454
206601.000			-44.534			-4.453
206700.000			-44.533			-4.453
206801.000			-44.532			-4.453
206902.000			-44.532			-4.453
207001.000			-44.531			-4.453
207100.000			-44.531			-4.453
207201.000			-44.530			-4.453
207300.000			-44.529			-4.453
207400.000			-44.529			-4.453
207501.000			-44.528			-4.453
207600.000			-44.528			-4.453
207701.000			-44.527			-4.453
207802.000			-44.527			-4.453
207901.000			-44.526			-4.453
208000.000			-44.524			-4.452
208100.000			-44.525			-4.453
208200.000			-44.524			-4.452
208301.000			-44.524			-4.452
208400.000			-44.523			-4.452
208500.000			-44.523			-4.452
208601.000			-44.522			-4.452
208701.000			-44.522			-4.452
208801.000			-44.521			-4.452
208901.000			-44.520			-4.452
209000.000			-44.520			-4.452
209100.000			-44.520			-4.452
209201.000			-44.519			-4.452
209300.000			-44.517			-4.452
209400.000			-44.518			-4.452
209501.000			-44.515			-4.451
209601.000			-44.516			-4.452
209701.000			-44.516			-4.452
209801.000			-44.515			-4.452
209900.000			-44.514			-4.451
210000.000			-44.513			-4.451
210101.000			-44.512			-4.451
210200.000			-44.511			-4.451
210300.000			-44.511			-4.451
210401.000			-44.510			-4.451
210501.000			-44.508			-4.451
210601.000			-44.508			-4.451
210701.000			-44.507			-4.451
210800.000			-44.508			-4.451
210900.000			-44.508			-4.451
211001.000			-44.506			-4.451
211100.000			-44.506			-4.451
211200.000			-44.505			-4.451
211300.000			-44.505			-4.450
211401.000			-44.504			-4.450
211502.000			-44.504			-4.450
211600.000			-44.503			-4.450
211700.000			-44.501			-4.450
211801.000			-44.501			-4.450
211900.000			-44.501			-4.450
212000.000			-44.500			-4.450
212101.000			-44.500			-4.450
212200.000			-44.499			-4.450
212301.000			-44.498			-4.450
212402.000			-44.497			-4.450
212500.000			-44.496			-4.450
212600.000			-44.496			-4.450
212701.000			-44.496			-4.450
212800.000			-44.495			-4.450
212900.000			-44.495			-4.449
213001.000			-44.494			-4.449
213100.000			-44.495			-4.449
213201.000			-44.494			-4.449
213302.000			-44.493			-4.449
213401.000			-44.492			-4.449
213500.000			-44.490			-4.449
213601.000			-44.491			-4.449
213700.000			-44.491			-4.449
213800.000			-44.488			-4.449
213901.000			-44.488			-4.449
214000.000			-44.488			-4.449
214100.000			-44.487			-4.449
214202.000			-44.486			-4.449
214301.000			-44.486			-4.449
214400.000			-44.486			-4.449
214500.000			-44.485			-4.449
214600.000			-44.485			-4.448
214701.000			-44.485			-4.448
214800.000			-44.484			-4.448
214900.000			-44.483			-4.448
215001.000			-44.483			-4.448
215101.000			-44.482			-4.448
215201.000			-44.482			-4.448
215301.000			-44.479			-4.448
215400.000			-44.480			-4.448
215500.000			-44.480			-4.448
215601.000			-44.479			-4.448
215700.000			-44.478			-4.448
215800.000			-44.478			-4.448
215901.000			-44.477			-4.448
216001.000			-44.476			-4.448
216101.000			-44.475			-4.448
216202.000			-44.475			-4.447
216300.000			-44.474			-4.447
216400.000			-44.474			-4.447
216501.000			-44.473			-4.447
216600.000			-44.473			-4.447
216700.000			-44.471			-4.447
216801.000			-44.471			-4.447
216900.000			-44.470			-4.447
217001.000			-44.469			-4.447
217102.000			-44.469			-4.447
217200.000			-44.469			-4.447
217300.000			-44.469			-4.447
217401.000			-44.469			-4.447
217500.000			-44.466			-4.447
217600.000			-44.466			-4.447
217700.000			-44.466			-4.447
217800.000			-44.466			-4.447
217902.000			-44.465			-4.447
218001.000			-44.464			-4.446
218101.000			-44.464			-4.446
218201.000			-44.462			-4.446
218300.000			-44.461			-4.446
218400.000			-44.461			-4.446
218501.000			-44.461			-4.446
218600.000			-44.461			-4.446
218700.000			-44.460			-4.446
218801.000			-44.459			-4.446
218901.000			-44.459			-4.446
219001.000			-44.459			-4.446
219101.000			-44.458			-4.446
219200.000			-44.457			-4.446
219300.000			-44.456			-4.446
219401.000			-44.456			-4.446
219500.000			-44.456			-4.446
219600.000			-44.455			-4.445
219701.000			-44.455			-4.445
219801.000			-44.454			-4.445
219901.000			-44.454			-4.445
220002.000			-44.453			-4.445
220100.000			-44.452			-4.445
220200.000			-44.451			-4.445
220301.000			-44.452			-4.445
220400.000			-44.450			-4.445
220500.000			-44.450			-4.445
220601.000			-44.450			-4.445
220701.000			-44.449			-4.445
220802.000			-44.448			-4.445
220901.000			-44.447			-4.445
221000.000			-44.447			-4.445
221101.000			-44.446			-4.445
221200.000			-44.445			-4.444
221300.000			-44.444			-4.444
221401.000			-44.445			-4.444
221500.000			-44.444			-4.444
221601.000			-44.442			-4.444
221702.000			-44.442			-4.444
221801.000			-44.441			-4.444
221900.000			-44.441			-4.444
222001.000			-44.441			-4.444
222100.000			-44.440			-4.444
222200.000			-44.439			-4.444
222301.000			-44.439			-4.444
222400.000			-44.440			-4.444
222501.000			-44.438			-4.444
222602.000			-44.438			-4.444
222701.000			-44.437			-4.444
222800.000			-44.436			-4.444
222901.000			-44.435			-4.444
223000.000			-44.435			-4.443
223100.000			-44.434			-4.443
223201.000			-44.432			-4.443
223300.000			-44.433			-4.443
223401.000			-44.433			-4.443
223502.000			-44.432			-4.443
223601.000			-44.431			-4.443
223700.000			-44.431			-4.443
223801.000			-44.431			-4.443
223900.000			-44.430			-4.443
224000.000			-44.429			-4.443
224100.000			-44.428			-4.443
224200.000			-44.428			-4.443
224301.000			-44.426			-4.443
224401.000			-44.426			-4.443
224501.000			-44.427			-4.443
224601.000			-44.426			-4.443
224700.000			-44.425			-4.442
224800.000			-44.425			-4.442
224901.000			-44.424			-4.442
225000.000			-44.423			-4.442
225100.000			-44.422			-4.442
225201.000			-44.423			-4.442
225301.000			-44.422			-4.442
225401.000			-44.421			-4.442
225501.000			-44.420			-4.442
225600.000			-44.419			-4.442
225700.000			-44.419			-4.442
225801.000			-44.419			-4.442
225900.000			-44.419			-4.442
226000.000			-44.418			-4.442
226101.000			-44.416			-4.442
226201.000			-44.415			-4.441
226301.000			-44.415			-4.442
226401.000			-44.415			-4.442
226500.000			-44.415			-4.441
226600.000			-44.414			-4.441
226701.000			-44.413			-4.441
226800.000			-44.413			-4.441
226900.000			-44.412			-4.441
227001.000			-44.412			-4.441
227101.000			-44.411			-4.441
227202.000			-44.411			-4.441
227300.000			-44.410			-4.441
227400.000			-44.409			-4.441
227501.000			-44.409			-4.441
227600.000			-44.409			-4.441
227700.000			-44.408			-4.441
227801.000			-44.407			-4.441
227900.000			-44.406			-4.441
228001.000			-44.406			-4.441
228102.000			-44.406			-4.441
228201.000			-44.405			-4.440
228300.000			-44.404			-4.440
228401.000			-44.404			-4.440
228500.000			-44.404			-4.440
228600.000			-44.403			-4.440
228701.000			-44.401			-4.440
228800.000			-44.401			-4.440
228901.000			-44.400			-4.440
229002.000			-44.400			-4.440
229101.000			-44.400			-4.440
229200.000			-44.400			-4.440
229301.000			-44.399			-4.440
229400.000			-44.398			-4.440
229500.000			-44.397			-4.440
229601.000			-44.397			-4.440
229700.000			-44.396			-4.440
229800.000			-44.396			-4.440
229902.000			-44.395			-4.439
230001.000			-44.394			-4.439
230101.000			-44.394			-4.439
230201.000			-44.393			-4.439
230300.000			-44.392			-4.439
230400.000			-44.391			-4.439
230500.000			-44.391			-4.439
230600.000			-44.390			-4.439
230701.000			-44.390			-4.439
230801.000			-44.389			-4.439
230901.000			-44.389			-4.439
231002.000			-44.389			-4.439
231100.000			-44.388			-4.439
231200.000			-44.388			-4.439
231301.000			-44.387			-4.439
231400.000			-44.386			-4.439
231500.000			-44.386			-4.439
231601.000			-44.386			-4.439
231701.000			-44.385			-4.439
231801.000			-44.383			-4.438
231902.000			-44.384			-4.438
232000.000			-44.384			-4.438
232100.000			-44.383			-4.438
232201.000			-44.381			-4.438
232300.000			-44.381			-4.438
232400.000			-44.381			-4.438
232501.000			-44.380			-4.438
232601.000			-44.380			-4.438
232701.000			-44.379			-4.438
232802.000			-44.378			-4.438
232900.000			-44.378			-4.438
233000.000			-44.378			-4.438
233101.000			-44.378			-4.438
233200.000			-44.377			-4.438
233300.000			-44.377			-4.438
233401.000			-44.375			-4.438
233500.000			-44.375			-4.438
233602.000			-44.375			-4.438
233701.000			-44.373			-4.437
233800.000			-44.372			-4.437
233901.000			-44.371			-4.437
234000.000			-44.372			-4.437
234100.000			-44.370			-4.437
234201.000			-44.370			-4.437
234300.000			-44.370			-4.437
234400.000			-44.370			-4.437
234502.000			-44.369			-4.437
234601.000			-44.369			-4.437
234701.000			-44.368			-4.437
234801.000			-44.368			-4.437
234900.000			-44.367			-4.437
235000.000			-44.366			-4.437
235101.000			-44.365			-4.436
235200.000			-44.364			-4.436
235300.000			-44.364			-4.436
235401.000			-44.364			-4.436
235501.000			-44.363			-4.436
235601.000			-44.362			-4.436
235701.000			-44.362			-4.436
235800.000			-44.361			-4.436
235900.000			-44.362			-4.436
236001.000			-44.361			-4.436
236100.000			-44.360			-4.436
236200.000			-44.360			-4.436
236301.000			-44.359			-4.436
236401.000			-44.359			-4.436
236501.000			-44.358			-4.436
236601.000			-44.357			-4.436
236700.000			-44.357			-4.436
236800.000			-44.357			-4.436
236900.000			-44.356			-4.436
237000.000			-44.356			-4.436
237101.000			-44.354			-4.435
237200.000			-44.353			-4.435
237300.000			-44.352			-4.435
237402.000			-44.353			-4.435
237501.000			-44.352			-4.435
237600.000			-44.351			-4.435
237701.000			-44.351			-4.435
237800.000			-44.351			-4.435
237900.000			-44.351			-4.435
238001.000			-44.349			-4.435
238100.000			-44.349			-4.435
238200.000			-44.349			-4.435
238302.000			-44.348			-4.435
238401.000			-44.347			-4.435
238500.000			-44.346			-4.435
238601.000			-44.346			-4.435
238700.000			-44.345			-4.434
238800.000			-44.345			-4.434
238901.000			-44.344			-4.434
239000.000			-44.344			-4.434
239100.000			-44.343			-4.434
239202.000			-44.342			-4.434
239301.000			-44.342			-4.434
239401.000			-44.342			-4.434
239501.000			-44.342			-4.434
239600.000			-44.342			-4.434
239700.000			-44.341			-4.434
239801.000			-44.341			-4.434
239900.000			-44.338			-4.434
240000.000			-44.338			-4.434
240100.000			-44.337			-4.434
240201.000			-44.337			-4.434
240302.000			-44.337			-4.434
240400.000			-44.337			-4.434
240500.000			-44.336			-4.434
240601.000			-44.336			-4.434
240700.000			-44.335			-4.433
240800.000			-44.334			-4.433
240901.000			-44.333			-4.433
241000.000			-44.332			-4.433
241101.000			-44.333			-4.433
241202.000			-44.332			-4.433
241300.000			-44.331			-4.433
241400.000			-44.331			-4.433
241501.000			-44.330			-4.433
241600.000			-44.329			-4.433
241700.000			-44.328			-4.433
241801.000			-44.328			-4.433
241900.000			-44.329			-4.433
242001.000			-44.328			-4.433
242102.000			-44.328			-4.433
242201.000			-44.327			-4.433
242300.000			-44.326			-4.433
242401.000			-44.326			-4.433
242500.000			-44.325			-4.432
242600.000			-44.324			-4.432
242701.000			-44.324			-4.432
242800.000			-44.323			-4.432
242901.000			-44.323			-4.432
243002.000			-44.322			-4.432
243101.000			-44.321			-4.432
243200.000			-44.321			-4.432
243300.000			-44.322			-4.432
243400.000			-44.321			-4.432
243501.000			-44.320			-4.432
243600.000			-44.319			-4.432
243700.000			-44.319			-4.432
243802.000			-44.319			-4.432
243901.000			-44.318			-4.432
244001.000			-44.317			-4.432
244101.000			-44.317			-4.432
244200.000			-44.316			-4.432
244300.000			-44.316			-4.432
244401.000			-44.314			-4.431
244500.000			-44.315			-4.431
244600.000			-44.314			-4.431
244702.000			-44.313			-4.431
244801.000			-44.312			-4.431
244901.000			-44.312			-4.431
245001.000			-44.312			-4.431
245100.000			-44.312			-4.431
245200.000			-44.311			-4.431
245301.000			-44.310			-4.431
245400.000			-44.310			-4.431
245500.000			-44.309			-4.431
245602.000			-44.309			-4.431
245701.000			-44.308			-4.431
245801.000			-44.307			-4.431
245901.000			-44.307			-4.431
246000.000			-44.307			-4.431
246100.000			-44.307			-4.431
246201.000			-44.306			-4.431
246300.000			-44.305			-4.431
246400.000			-44.303			-4.430
246500.000			-44.303			-4.430
246601.000			-44.304			-4.430
246702.000			-44.302			-4.430
246800.000			-44.302			-4.430
246900.000			-44.301			-4.430
247001.000			-44.301			-4.430
247100.000			-44.300			-4.430
247200.000			-44.299			-4.430
247301.000			-44.299			-4.430
247400.000			-44.300			-4.430
247501.000			-44.298			-4.430
247602.000			-44.298			-4.430
247700.000			-44.297			-4.430
247800.000			-44.297			-4.430
247901.000			-44.296			-4.430
248000.000			-44.297			-4.430
248100.000			-44.296			-4.430
248201.000			-44.296			-4.430
248300.000			-44.295			-4.430
248400.000			-44.295			-4.429
248502.000			-44.293			-4.429
248601.000			-44.293			-4.429
248700.000			-44.293			-4.429
248801.000			-44.291			-4.429
248900.000			-44.291			-4.429
249000.000			-44.292			-4.429
249101.000			-44.291			-4.429
249200.000			-44.290			-4.429
249300.000			-44.289			-4.429
249402.000			-44.289			-4.429
249501.000			-44.288			-4.429
249602.000			-44.287			-4.429
249700.000			-44.287			-4.429
249800.000			-44.287			-4.429
249901.000			-44.287			-4.429
250000.000			-44.285			-4.429
250100.000			-44.284			-4.428
250201.000			-44.284			-4.428
250300.000			-44.284			-4.428
250401.000			-44.283			-4.428
250502.000			-44.282			-4.428
250600.000			-44.282			-4.428
250700.000			-44.281			-4.428
250801.000			-44.281			-4.428
250900.000			-44.282			-4.428
251000.000			-44.280			-4.428
251101.000			-44.279			-4.428
251200.000			-44.279			-4.428
251301.000			-44.278			-4.428
251402.000			-44.277			-4.428
251501.000			-44.277			-4.428
251600.000			-44.278			-4.428
251701.000			-44.277			-4.428
251800.000			-44.276			-4.428
251900.000			-44.275			-4.427
252001.000			-44.275			-4.427
252100.000			-44.275			-4.428
252200.000			-44.274			-4.427
252302.000			-44.273			-4.427
252401.000			-44.272			-4.427
252500.000			-44.272			-4.427
252601.000			-44.272			-4.427
252700.000			-44.271			-4.427
252800.000			-44.270			-4.427
252900.000			-44.269			-4.427
253000.000			-44.270			-4.427
253101.000			-44.269			-4.427
253201.000			-44.268			-4.427
253301.000			-44.269			-4.427
253401.000			-44.268			-4.427
253500.000			-44.268			-4.427
253600.000			-44.266			-4.427
253701.000			-44.266			-4.427
253800.000			-44.265			-4.427
253900.000			-44.264			-4.426
254001.000			-44.264			-4.426
254101.000			-44.264			-4.426
254201.000			-44.263			-4.426
254301.000			-44.263			-4.426
254400.000			-44.263			-4.426
254500.000			-44.262			-4.426
254601.000			-44.262			-4.426
254700.000			-44.261			-4.426
254800.000			-44.261			-4.426
254901.000			-44.260			-4.426
255001.000			-44.259			-4.426
255101.000			-44.259			-4.426
255202.000			-44.259			-4.426
255300.000			-44.258			-4.426
255400.000			-44.258			-4.426
255501.000			-44.258			-4.426
255600.000			-44.258			-4.426
255700.000			-44.258			-4.426
255801.000			-44.255			-4.426
255900.000			-44.254			-4.425
256002.000			-44.255			-4.425
256101.000			-44.254			-4.425
256201.000			-44.253			-4.425
256301.000			-44.253			-4.425
256400.000			-44.253			-4.425
256500.000			-44.252			-4.425
256601.000			-44.252			-4.425
256700.000			-44.251			-4.425
256800.000			-44.250			-4.425
256901.000			-44.249			-4.425
257001.000			-44.249			-4.425
257101.000			-44.249			-4.425
257201.000			-44.247			-4.425
257300.000			-44.246			-4.425
257400.000			-44.247			-4.425
257501.000			-44.247			-4.425
257600.000			-44.246			-4.425
257700.000			-44.246			-4.425
257801.000			-44.245			-4.424
257901.000			-44.245			-4.424
258001.000			-44.243			-4.424
258101.000			-44.244			-4.424
258200.000			-44.244			-4.424
258300.000			-44.242			-4.424
258401.000			-44.242			-4.424
258500.000			-44.242			-4.424
258600.000			-44.241			-4.424
258701.000			-44.241			-4.424
258801.000			-44.240			-4.424
258901.000			-44.240			-4.424
259002.000			-44.239			-4.424
259100.000			-44.239			-4.424
259200.000			-44.238			-4.424
259300.000			-44.238			-4.424
259400.000			-44.237			-4.424
259501.000			-44.235			-4.424
259600.000			-44.234			-4.423
259700.000			-44.235			-4.423
259802.000			-44.234			-4.423
259901.000			-44.234			-4.423
260000.000			-44.233			-4.423
260101.000			-44.233			-4.423
260200.000			-44.232			-4.423
260300.000			-44.232			-4.423
260401.000			-44.232			-4.423
260500.000			-44.232			-4.423
260600.000			-44.231			-4.423
260702.000			-44.230			-4.423
260801.000			-44.231			-4.423
260900.000			-44.230			-4.423
261001.000			-44.229			-4.423
261100.000			-44.229			-4.423
261200.000			-44.228			-4.423
261301.000			-44.228			-4.423
261400.000			-44.228			-4.423
261500.000			-44.227			-4.423
261602.000			-44.226			-4.423
261701.000			-44.225			-4.422
261800.000			-44.224			-4.422
261901.000			-44.225			-4.422
262000.000			-44.225			-4.422
262100.000			-44.224			-4.422
262201.000			-44.223			-4.422
262300.000			-44.223			-4.422
262400.000			-44.222			-4.422
262502.000			-44.221			-4.422
262601.000			-44.221			-4.422
262701.000			-44.220			-4.422
262800.000			-44.219			-4.422
262900.000			-44.219			-4.422
263001.000			-44.219			-4.422
263100.000			-44.218			-4.422
263200.000			-44.218			-4.422
263301.000			-44.218			-4.422
263401.000			-44.217			-4.422
263501.000			-44.216			-4.422
263602.000			-44.215			-4.422
263700.000			-44.215			-4.421
263800.000			-44.214			-4.421
263901.000			-44.214			-4.421
264000.000			-44.214			-4.421
264100.000			-44.213			-4.421
264201.000			-44.213			-4.421
264301.000			-44.213			-4.421
264401.000			-44.212			-4.421
264502.000			-44.212			-4.421
264600.000			-44.211			-4.421
264700.000			-44.210			-4.421
264801.000			-44.211			-4.421
264900.000			-44.209			-4.421
265000.000			-44.209			-4.421
265101.000			-44.209			-4.421
265201.000			-44.207			-4.421
265301.000			-44.206			-4.421
265402.000			-44.206			-4.421
265500.000			-44.206			-4.421
265600.000			-44.206			-4.421
265700.000			-44.206			-4.421
265800.000			-44.204			-4.420
265901.000			-44.204			-4.420
266000.000			-44.203			-4.420
266100.000			-44.203			-4.420
266202.000			-44.203			-4.420
266301.000			-44.202			-4.420
266400.000			-44.202			-4.420
266501.000			-44.201			-4.420
266600.000			-44.201			-4.420
266700.000			-44.200			-4.420
266801.000			-44.199			-4.420
266900.000			-44.199			-4.420
267000.000			-44.199			-4.420
267102.000			-44.199			-4.420
267201.000			-44.198			-4.420
267300.000			-44.197			-4.420
267401.000			-44.197			-4.420
267500.000			-44.196			-4.420
267600.000			-44.197			-4.420
267701.000			-44.196			-4.420
267800.000			-44.195			-4.419
267900.000			-44.194			-4.419
268001.000			-44.194			-4.419
268101.000			-44.193			-4.419
268201.000			-44.193			-4.419
268301.000			-44.193			-4.419
268400.000			-44.193			-4.419
268500.000			-44.193			-4.419
268601.000			-44.192			-4.419
268700.000			-44.191			-4.419
268800.000			-44.190			-4.419
268900.000			-44.189			-4.419
269001.000			-44.190			-4.419
269102.000			-44.190			-4.419
269201.000			-44.189			-4.419
269300.000			-44.188			-4.419
269401.000			-44.188			-4.419
269500.000			-44.188			-4.419
269600.000			-44.185			-4.419
269701.000			-44.185			-4.418
269800.000			-44.185			-4.418
269900.000			-44.184			-4.418
270002.000			-44.184			-4.418
270101.000			-44.183			-4.418
270200.000			-44.184			-4.418
270301.000			-44.183			-4.418
270400.000			-44.184			-4.418
270500.000			-44.183			-4.418
270601.000			-44.182			-4.418
270700.000			-44.181			-4.418
270800.000			-44.180			-4.418
270902.000			-44.179			-4.418
271001.000			-44.179			-4.418
271101.000			-44.179			-4.418
271201.000			-44.178			-4.418
271300.000			-44.179			-4.418
271400.000			-44.177			-4.418
271501.000			-44.176			-4.418
271600.000			-44.176			-4.418
271700.000			-44.175			-4.418
271801.000			-44.175			-4.418
271901.000			-44.175			-4.417
272002.000			-44.175			-4.417
272100.000			-44.175			-4.417
272200.000			-44.174			-4.417
272301.000			-44.173			-4.417
272400.000			-44.173			-4.417
272500.000			-44.172			-4.417
272601.000			-44.171			-4.417
272700.000			-44.171			-4.417
272801.000			-44.170			-4.417
272902.000			-44.170			-4.417
273001.000			-44.170			-4.417
273100.000			-44.170			-4.417
273201.000			-44.169			-4.417
273300.000			-44.170			-4.417
273400.000			-44.169			-4.417
273501.000			-44.168			-4.417
273600.000			-44.166			-4.417
273701.000			-44.167			-4.417
273802.000			-44.166			-4.417
273901.000			-44.165			-4.416
274000.000			-44.164			-4.416
274101.000			-44.164			-4.416
274200.000			-44.164			-4.416
274300.000			-44.162			-4.416
274401.000			-44.162			-4.416
274500.000			-44.163			-4.416
274600.000			-44.162			-4.416
274702.000			-44.161			-4.416
274801.000			-44.162			-4.416
274900.000			-44.162			-4.416
275001.000			-44.160			-4.416
275100.000			-44.160			-4.416
275200.000			-44.159			-4.416
275300.000			-44.158			-4.416
275400.000			-44.157			-4.416
275501.000			-44.157			-4.416
275601.000			-44.158			-4.416
275701.000			-44.157			-4.416
275802.000			-44.156			-4.416
275900.000			-44.155			-4.415
276000.000			-44.154			-4.415
276101.000			-44.154			-4.415
276200.000			-44.154			-4.415
276300.000			-44.154			-4.415
276401.000			-44.153			-4.415
276501.000			-44.152			-4.415
276601.000			-44.152			-4.415
276702.000			-44.152			-4.415
276800.000			-44.151			-4.415
276900.000			-44.151			-4.415
277001.000			-44.151			-4.415
277100.000			-44.150			-4.415
277200.000			-44.150			-4.415
277301.000			-44.150			-4.415
277400.000			-44.150			-4.415
277501.000			-44.148			-4.415
277602.000			-44.148			-4.415
277700.000			-44.148			-4.415
277800.000			-44.148			-4.415
277901.000			-44.147			-4.415
278000.000			-44.146			-4.415
278100.000			-44.145			-4.415
278201.000			-44.146			-4.415
278300.000			-44.143			-4.414
278400.000			-44.144			-4.414
278502.000			-44.144			-4.414
278601.000			-44.143			-4.414
278701.000			-44.143			-4.414
278800.000			-44.142			-4.414
278900.000			-44.142			-4.414
279001.000			-44.141			-4.414
279100.000			-44.141			-4.414
279200.000			-44.140			-4.414
279301.000			-44.139			-4.414
279401.000			-44.139			-4.414
279501.000			-44.139			-4.414
279601.000			-44.139			-4.414
279700.000			-44.139			-4.414
279800.000			-44.138			-4.414
279901.000			-44.136			-4.414
280000.000			-44.137			-4.414
280100.000			-44.136			-4.414
280201.000			-44.136			-4.414
280301.000			-44.136			-4.414
280401.000			-44.135			-4.413
280501.000			-44.135			-4.413
280600.000			-44.134			-4.413
280700.000			-44.133			-4.413
280801.000			-44.133			-4.413
280900.000			-44.133			-4.413
281000.000			-44.132			-4.413
281101.000			-44.132			-4.413
281201.000			-44.131			-4.413
281301.000			-44.131			-4.413
281401.000			-44.130			-4.413
281500.000			-44.130			-4.413
281600.000			-44.130			-4.413
281700.000			-44.129			-4.413
281800.000			-44.129			-4.413
281901.000			-44.128			-4.413
282000.000			-44.129			-4.413
282101.000			-44.128			-4.413
282202.000			-44.127			-4.413
282301.000			-44.127			-4.413
282400.000			-44.126			-4.413
282501.000			-44.126			-4.413
282600.000			-44.126			-4.413
282700.000			-44.126			-4.413
282801.000			-44.123			-4.412
282900.000			-44.123			-4.412
283001.000			-44.123			-4.412
283102.000			-44.122			-4.412
283201.000			-44.122			-4.412
283300.000			-44.121			-4.412
283401.000			-44.120			-4.412
283500.000			-44.121			-4.412
283600.000			-44.120			-4.412
283701.000			-44.120			-4.412
283800.000			-44.120			-4.412
283901.000			-44.119			-4.412
284002.000			-44.119			-4.412
284101.000			-44.118			-4.412
284200.000			-44.118			-4.412
284301.000			-44.118			-4.412
284400.000			-44.117			-4.412
284500.000			-44.116			-4.412
284601.000			-44.116			-4.412
284700.000			-44.115			-4.412
284800.000			-44.116			-4.412
284902.000			-44.116			-4.412
285001.000			-44.115			-4.411
285101.000			-44.114			-4.411
285200.000			-44.112			-4.411
285300.000			-44.112			-4.411
285401.000			-44.111			-4.411
285500.000			-44.112			-4.411
285600.000			-44.111			-4.411
285701.000			-44.111			-4.411
285801.000			-44.110			-4.411
285901.000			-44.110			-4.411
286001.000			-44.110			-4.411
286100.000			-44.109			-4.411
286200.000			-44.109			-4.411
286301.000			-44.107			-4.411
286400.000			-44.107			-4.411
286500.000			-44.107			-4.411
286601.000			-44.107			-4.411
286701.000			-44.107			-4.411
286801.000			-44.106			-4.411
286901.000			-44.106			-4.411
287000.000			-44.105			-4.411
287100.000			-44.104			-4.410
287201.000			-44.103			-4.410
287300.000			-44.103			-4.410
287400.000			-44.103			-4.410
287501.000			-44.103			-4.410
287601.000			-44.103			-4.410
287701.000			-44.101			-4.410
287801.000			-44.101			-4.410
287900.000			-44.101			-4.410
288000.000			-44.100			-4.410
288100.000			-44.100			-4.410
288200.000			-44.099			-4.410
288301.000			-44.098			-4.410
288400.000			-44.098			-4.410
288501.000			-44.098			-4.410
288602.000			-44.097			-4.410
288701.000			-44.097			-4.410
288800.000			-44.096			-4.410
288901.000			-44.097			-4.410
289000.000			-44.096			-4.410
289100.000			-44.096			-4.410
289201.000			-44.096			-4.410
289300.000			-44.095			-4.409
289400.000			-44.094			-4.409
289502.000			-44.094			-4.409
289601.000			-44.093			-4.409
289701.000			-44.092			-4.409
289801.000			-44.092			-4.409
289900.000			-44.092			-4.409
290000.000			-44.090			-4.409
290101.000			-44.090			-4.409
290200.000			-44.090			-4.409
290300.000			-44.089			-4.409
290401.000			-44.089			-4.409
290501.000			-44.088			-4.409
290601.000			-44.089			-4.409
290701.000			-44.089			-4.409
290800.000			-44.088			-4.409
290900.000			-44.086			-4.409
291001.000			-44.086			-4.409
291100.000			-44.086			-4.409
291200.000			-44.085			-4.408
291300.000			-44.085			-4.408
291401.000			-44.084			-4.408
291502.000			-44.083			-4.408
291601.000			-44.083			-4.408
291700.000			-44.084			-4.408
291801.000			-44.083			-4.408
291900.000			-44.082			-4.408
292000.000			-44.082			-4.408
292101.000			-44.082			-4.408
292200.000			-44.082			-4.408
292300.000			-44.081			-4.408
292402.000			-44.079			-4.408
292501.000			-44.078			-4.408
292600.000			-44.078			-4.408
292701.000			-44.079			-4.408
292800.000			-44.078			-4.408
292900.000			-44.077			-4.408
293001.000			-44.076			-4.408
293100.000			-44.075			-4.408
293200.000			-44.076			-4.408
293302.000			-44.077			-4.408
293401.000			-44.075			-4.408
293500.000			-44.073			-4.407
293601.000			-44.074			-4.407
293700.000			-44.073			-4.407
293800.000			-44.073			-4.407
293901.000			-44.074			-4.407
294000.000			-44.074			-4.407
294100.000			-44.072			-4.407
294202.000			-44.071			-4.407
294301.000			-44.071			-4.407
294402.000			-44.071			-4.407
294500.000			-44.072			-4.407
294600.000			-44.071			-4.407
294701.000			-44.070			-4.407
294800.000			-44.069			-4.407
294900.000			-44.068			-4.407
295001.000			-44.067			-4.407
295101.000			-44.067			-4.407
295201.000			-44.067			-4.407
295302.000			-44.066			-4.407
295400.000			-44.066			-4.407
295500.000			-44.066			-4.407
295601.000			-44.065			-4.407
295700.000			-44.065			-4.407
295800.000			-44.063			-4.406
295901.000			-44.064			-4.406
296000.000			-44.064			-4.406
296101.000			-44.064			-4.406
296202.000			-44.063			-4.406
296301.000			-44.062			-4.406
296400.000			-44.061			-4.406
296501.000			-44.061			-4.406
296600.000			-44.061			-4.406
296700.000			-44.060			-4.406
296801.000			-44.060			-4.406
296900.000			-44.060			-4.406
297001.000			-44.059			-4.406
297102.000			-44.058			-4.406
297201.000			-44.058			-4.406
297300.000			-44.058			-4.406
297401.000			-44.058			-4.406
297500.000			-44.058			-4.406
297600.000			-44.057			-4.406
297700.000			-44.057			-4.406
297800.000			-44.056			-4.406
297901.000			-44.055			-4.406
298001.000			-44.054			-4.405
298101.000			-44.054			-4.405
298201.000			-44.055			-4.406
298300.000			-44.054			-4.405
298400.000			-44.054			-4.405
298501.000			-44.053			-4.405
298600.000			-44.052			-4.405
298700.000			-44.052			-4.405
298801.000			-44.053			-4.405
298901.000			-44.051			-4.405
299001.000			-44.051			-4.405
299102.000			-44.050			-4.405
299200.000			-44.050			-4.405
299300.000			-44.051			-4.405
299401.000			-44.050			-4.405
299500.000			-44.050			-4.405
299600.000			-44.050			-4.405
299701.000			-44.049			-4.405
299800.000			-44.048			-4.405
299901.000			-44.047			-4.405
