# Acquired on 20/12/2023 10:44:44 
# SPIDER: Creep_3mm_07714532B-2
# CREEP MEASUREMENT

# time [ms]		force [N]		stiffness [N/mm]
1.000			-8.554			-2.851
101.000			-9.705			-3.235
201.000			-10.210			-3.403
301.000			-10.288			-3.429
400.000			-10.241			-3.414
500.000			-10.167			-3.389
601.000			-10.141			-3.380
700.000			-10.118			-3.373
801.000			-10.098			-3.366
902.000			-10.080			-3.360
1000.000			-10.063			-3.354
1100.000			-10.048			-3.349
1200.000			-10.023			-3.341
1300.000			-10.011			-3.337
1401.000			-10.001			-3.334
1501.000			-9.990			-3.330
1601.000			-9.981			-3.327
1701.000			-9.972			-3.324
1800.000			-9.963			-3.321
1900.000			-9.955			-3.318
2001.000			-9.941			-3.314
2100.000			-9.933			-3.311
2200.000			-9.926			-3.309
2302.000			-9.920			-3.307
2401.000			-9.914			-3.305
2500.000			-9.908			-3.303
2601.000			-9.902			-3.301
2700.000			-9.892			-3.297
2800.000			-9.886			-3.295
2901.000			-9.881			-3.294
3000.000			-9.877			-3.292
3101.000			-9.871			-3.290
3202.000			-9.867			-3.289
3300.000			-9.863			-3.288
3400.000			-9.855			-3.285
3501.000			-9.850			-3.283
3600.000			-9.847			-3.282
3700.000			-9.843			-3.281
3802.000			-9.838			-3.279
3901.000			-9.835			-3.278
4001.000			-9.831			-3.277
4101.000			-9.827			-3.276
4200.000			-9.820			-3.273
4300.000			-9.818			-3.273
4400.000			-9.815			-3.272
4500.000			-9.812			-3.271
4602.000			-9.808			-3.269
4701.000			-9.806			-3.269
4800.000			-9.803			-3.268
4901.000			-9.797			-3.266
5000.000			-9.794			-3.265
5100.000			-9.791			-3.264
5201.000			-9.789			-3.263
5300.000			-9.786			-3.262
5401.000			-9.784			-3.261
5502.000			-9.781			-3.260
5600.000			-9.776			-3.259
5700.000			-9.773			-3.258
5801.000			-9.771			-3.257
5900.000			-9.769			-3.256
6000.000			-9.766			-3.255
6101.000			-9.763			-3.254
6201.000			-9.761			-3.254
6301.000			-9.759			-3.253
6401.000			-9.756			-3.252
6500.000			-9.753			-3.251
6600.000			-9.750			-3.250
6701.000			-9.748			-3.249
6800.000			-9.747			-3.249
6900.000			-9.745			-3.248
7002.000			-9.743			-3.248
7101.000			-9.739			-3.246
7200.000			-9.736			-3.245
7301.000			-9.734			-3.245
7400.000			-9.733			-3.244
7500.000			-9.731			-3.244
7600.000			-9.730			-3.243
7700.000			-9.728			-3.243
7802.000			-9.725			-3.242
7901.000			-9.722			-3.241
8000.000			-9.721			-3.240
8101.000			-9.720			-3.240
8200.000			-9.717			-3.239
8300.000			-9.715			-3.238
8401.000			-9.713			-3.238
8501.000			-9.712			-3.237
8601.000			-9.710			-3.237
8701.000			-9.709			-3.236
8800.000			-9.706			-3.235
8900.000			-9.705			-3.235
9001.000			-9.703			-3.234
9100.000			-9.701			-3.234
9200.000			-9.700			-3.233
9302.000			-9.698			-3.233
9401.000			-9.697			-3.232
9500.000			-9.695			-3.232
9601.000			-9.694			-3.231
9700.000			-9.692			-3.231
9800.000			-9.690			-3.230
9901.000			-9.689			-3.230
10000.000			-9.688			-3.229
10101.000			-9.685			-3.228
10202.000			-9.683			-3.228
10300.000			-9.682			-3.227
10400.000			-9.681			-3.227
10501.000			-9.682			-3.227
10600.000			-9.680			-3.227
10700.000			-9.677			-3.226
10800.000			-9.674			-3.225
10901.000			-9.673			-3.224
11002.000			-9.672			-3.224
11100.000			-9.671			-3.224
11200.000			-9.670			-3.223
11301.000			-9.669			-3.223
11400.000			-9.667			-3.222
11500.000			-9.666			-3.222
11601.000			-9.664			-3.221
11701.000			-9.663			-3.221
11801.000			-9.662			-3.221
11901.000			-9.660			-3.220
12000.000			-9.659			-3.220
12100.000			-9.658			-3.219
12201.000			-9.657			-3.219
12300.000			-9.655			-3.218
12400.000			-9.654			-3.218
12502.000			-9.652			-3.217
12601.000			-9.651			-3.217
12700.000			-9.651			-3.217
12801.000			-9.650			-3.217
12900.000			-9.649			-3.216
13000.000			-9.647			-3.216
13101.000			-9.645			-3.215
13200.000			-9.645			-3.215
13301.000			-9.644			-3.215
13402.000			-9.642			-3.214
13500.000			-9.641			-3.214
13600.000			-9.640			-3.213
13701.000			-9.639			-3.213
13800.000			-9.637			-3.212
13900.000			-9.637			-3.212
14000.000			-9.637			-3.212
14101.000			-9.635			-3.212
14202.000			-9.633			-3.211
14300.000			-9.632			-3.211
14400.000			-9.632			-3.211
14501.000			-9.631			-3.210
14600.000			-9.629			-3.210
14700.000			-9.628			-3.209
14801.000			-9.627			-3.209
14901.000			-9.627			-3.209
15001.000			-9.625			-3.208
15101.000			-9.624			-3.208
15200.000			-9.623			-3.208
15300.000			-9.622			-3.207
15401.000			-9.622			-3.207
15500.000			-9.621			-3.207
15600.000			-9.620			-3.207
15702.000			-9.619			-3.206
15801.000			-9.618			-3.206
15900.000			-9.616			-3.205
16001.000			-9.615			-3.205
16100.000			-9.615			-3.205
16200.000			-9.613			-3.204
16301.000			-9.613			-3.204
16400.000			-9.612			-3.204
16501.000			-9.611			-3.204
16602.000			-9.611			-3.204
16700.000			-9.609			-3.203
16800.000			-9.607			-3.202
16901.000			-9.607			-3.202
17000.000			-9.607			-3.202
17100.000			-9.607			-3.202
17200.000			-9.605			-3.202
17301.000			-9.604			-3.201
17402.000			-9.603			-3.201
17500.000			-9.602			-3.201
17600.000			-9.602			-3.201
17701.000			-9.601			-3.200
17800.000			-9.601			-3.200
17900.000			-9.600			-3.200
18001.000			-9.598			-3.199
18101.000			-9.597			-3.199
18201.000			-9.596			-3.199
18301.000			-9.597			-3.199
18400.000			-9.595			-3.198
18500.000			-9.594			-3.198
18601.000			-9.593			-3.198
18700.000			-9.592			-3.197
18800.000			-9.592			-3.197
18902.000			-9.591			-3.197
19001.000			-9.590			-3.197
19100.000			-9.589			-3.196
19201.000			-9.588			-3.196
19300.000			-9.587			-3.196
19400.000			-9.586			-3.195
19501.000			-9.586			-3.195
19600.000			-9.583			-3.194
19701.000			-9.584			-3.195
19802.000			-9.584			-3.195
19901.000			-9.583			-3.194
20000.000			-9.583			-3.194
20101.000			-9.583			-3.194
20200.000			-9.582			-3.194
20300.000			-9.580			-3.193
20400.000			-9.579			-3.193
20501.000			-9.578			-3.193
20602.000			-9.577			-3.192
20701.000			-9.576			-3.192
20800.000			-9.576			-3.192
20901.000			-9.576			-3.192
21000.000			-9.575			-3.192
21100.000			-9.574			-3.191
21201.000			-9.573			-3.191
21301.000			-9.572			-3.191
21401.000			-9.572			-3.191
21501.000			-9.572			-3.191
21600.000			-9.571			-3.190
21700.000			-9.571			-3.190
21801.000			-9.569			-3.190
21900.000			-9.569			-3.190
22000.000			-9.567			-3.189
22102.000			-9.567			-3.189
22201.000			-9.566			-3.189
22300.000			-9.566			-3.189
22401.000			-9.565			-3.188
22500.000			-9.564			-3.188
22600.000			-9.564			-3.188
22701.000			-9.563			-3.188
22800.000			-9.563			-3.188
22901.000			-9.562			-3.187
23002.000			-9.561			-3.187
23101.000			-9.561			-3.187
23200.000			-9.561			-3.187
23301.000			-9.560			-3.187
23400.000			-9.559			-3.186
23500.000			-9.558			-3.186
23600.000			-9.558			-3.186
23701.000			-9.556			-3.185
23802.000			-9.556			-3.185
23901.000			-9.555			-3.185
24000.000			-9.554			-3.185
24101.000			-9.555			-3.185
24200.000			-9.553			-3.184
24300.000			-9.552			-3.184
24401.000			-9.552			-3.184
24501.000			-9.551			-3.184
24601.000			-9.550			-3.183
24702.000			-9.550			-3.183
24800.000			-9.550			-3.183
24900.000			-9.550			-3.183
25001.000			-9.549			-3.183
25100.000			-9.547			-3.182
25200.000			-9.547			-3.182
25301.000			-9.547			-3.182
25401.000			-9.547			-3.182
25501.000			-9.545			-3.182
25601.000			-9.545			-3.182
25700.000			-9.545			-3.182
25800.000			-9.544			-3.181
25901.000			-9.544			-3.181
26000.000			-9.544			-3.181
26100.000			-9.542			-3.181
26202.000			-9.542			-3.181
26301.000			-9.542			-3.181
26400.000			-9.540			-3.180
26501.000			-9.539			-3.180
26600.000			-9.539			-3.180
26700.000			-9.539			-3.180
26800.000			-9.538			-3.179
26900.000			-9.537			-3.179
27002.000			-9.537			-3.179
27101.000			-9.536			-3.179
27200.000			-9.536			-3.179
27301.000			-9.536			-3.179
27400.000			-9.536			-3.179
27500.000			-9.535			-3.178
27601.000			-9.534			-3.178
27700.000			-9.534			-3.178
27801.000			-9.533			-3.178
27902.000			-9.533			-3.178
28000.000			-9.532			-3.177
28100.000			-9.531			-3.177
28201.000			-9.531			-3.177
28300.000			-9.530			-3.177
28400.000			-9.530			-3.177
28501.000			-9.528			-3.176
28601.000			-9.528			-3.176
28701.000			-9.527			-3.176
28801.000			-9.527			-3.176
28900.000			-9.527			-3.176
29000.000			-9.527			-3.176
29101.000			-9.526			-3.175
29200.000			-9.525			-3.175
29300.000			-9.525			-3.175
29402.000			-9.524			-3.175
29501.000			-9.523			-3.174
29600.000			-9.523			-3.174
29701.000			-9.522			-3.174
29800.000			-9.522			-3.174
29900.000			-9.522			-3.174
30000.000			-9.522			-3.174
30100.000			-9.522			-3.174
30202.000			-9.521			-3.174
30301.000			-9.520			-3.173
30400.000			-9.520			-3.173
30501.000			-9.519			-3.173
30600.000			-9.519			-3.173
30700.000			-9.518			-3.173
30801.000			-9.517			-3.172
30901.000			-9.517			-3.172
31001.000			-9.516			-3.172
31102.000			-9.515			-3.172
31200.000			-9.515			-3.172
31300.000			-9.515			-3.172
31401.000			-9.514			-3.171
31500.000			-9.512			-3.171
31600.000			-9.513			-3.171
31702.000			-9.513			-3.171
31801.000			-9.512			-3.171
31900.000			-9.511			-3.170
32001.000			-9.511			-3.170
32100.000			-9.511			-3.170
32200.000			-9.511			-3.170
32301.000			-9.510			-3.170
32400.000			-9.510			-3.170
32501.000			-9.510			-3.170
32602.000			-9.509			-3.170
32700.000			-9.510			-3.170
32800.000			-9.510			-3.170
32901.000			-9.508			-3.169
33000.000			-9.508			-3.169
33100.000			-9.506			-3.169
33200.000			-9.505			-3.168
33301.000			-9.506			-3.169
33402.000			-9.505			-3.168
33500.000			-9.505			-3.168
33600.000			-9.504			-3.168
33701.000			-9.505			-3.168
33800.000			-9.504			-3.168
33900.000			-9.503			-3.168
34001.000			-9.502			-3.167
34101.000			-9.501			-3.167
34201.000			-9.501			-3.167
34301.000			-9.502			-3.167
34400.000			-9.501			-3.167
34500.000			-9.500			-3.167
34601.000			-9.500			-3.167
34700.000			-9.500			-3.167
34800.000			-9.499			-3.166
34902.000			-9.500			-3.167
35001.000			-9.499			-3.166
35100.000			-9.497			-3.166
35201.000			-9.497			-3.166
35300.000			-9.496			-3.165
35400.000			-9.496			-3.165
35501.000			-9.497			-3.166
35600.000			-9.496			-3.165
35701.000			-9.496			-3.165
35802.000			-9.495			-3.165
35900.000			-9.496			-3.165
36000.000			-9.496			-3.165
36101.000			-9.494			-3.165
36200.000			-9.494			-3.165
36300.000			-9.494			-3.165
36400.000			-9.493			-3.164
36501.000			-9.492			-3.164
36602.000			-9.491			-3.164
36700.000			-9.490			-3.163
36800.000			-9.492			-3.164
36901.000			-9.491			-3.164
37000.000			-9.490			-3.163
37100.000			-9.488			-3.163
37201.000			-9.489			-3.163
37301.000			-9.489			-3.163
37401.000			-9.489			-3.163
37501.000			-9.489			-3.163
37600.000			-9.488			-3.163
37700.000			-9.487			-3.162
37801.000			-9.487			-3.162
37900.000			-9.487			-3.162
38000.000			-9.486			-3.162
38101.000			-9.487			-3.162
38201.000			-9.486			-3.162
38301.000			-9.484			-3.161
38401.000			-9.485			-3.162
38500.000			-9.486			-3.162
38600.000			-9.485			-3.162
38701.000			-9.482			-3.161
38800.000			-9.482			-3.161
38900.000			-9.482			-3.161
39002.000			-9.483			-3.161
39101.000			-9.482			-3.161
39201.000			-9.482			-3.161
39301.000			-9.482			-3.161
39400.000			-9.481			-3.160
39500.000			-9.479			-3.160
39600.000			-9.479			-3.160
39700.000			-9.479			-3.160
39801.000			-9.479			-3.160
39901.000			-9.479			-3.160
40001.000			-9.479			-3.160
40101.000			-9.479			-3.160
40200.000			-9.478			-3.159
40300.000			-9.478			-3.159
40401.000			-9.478			-3.159
40500.000			-9.477			-3.159
40600.000			-9.476			-3.159
40702.000			-9.476			-3.159
40801.000			-9.476			-3.159
40900.000			-9.475			-3.158
41001.000			-9.474			-3.158
41100.000			-9.474			-3.158
41200.000			-9.473			-3.158
41301.000			-9.472			-3.157
41400.000			-9.473			-3.158
41501.000			-9.473			-3.158
41602.000			-9.473			-3.158
41700.000			-9.472			-3.157
41800.000			-9.471			-3.157
41901.000			-9.470			-3.157
42000.000			-9.470			-3.157
42100.000			-9.471			-3.157
42201.000			-9.471			-3.157
42301.000			-9.471			-3.157
42401.000			-9.469			-3.156
42501.000			-9.469			-3.156
42600.000			-9.468			-3.156
42700.000			-9.467			-3.156
42800.000			-9.468			-3.156
42900.000			-9.468			-3.156
43001.000			-9.468			-3.156
43101.000			-9.468			-3.156
43201.000			-9.467			-3.156
43301.000			-9.467			-3.156
43400.000			-9.467			-3.156
43500.000			-9.466			-3.155
43601.000			-9.465			-3.155
43700.000			-9.465			-3.155
43800.000			-9.465			-3.155
43902.000			-9.464			-3.155
44001.000			-9.464			-3.155
44100.000			-9.464			-3.155
44201.000			-9.463			-3.154
44300.000			-9.463			-3.154
44400.000			-9.463			-3.154
44501.000			-9.463			-3.154
44601.000			-9.461			-3.154
44701.000			-9.462			-3.154
44801.000			-9.462			-3.154
44900.000			-9.461			-3.154
45000.000			-9.461			-3.154
45101.000			-9.461			-3.154
45200.000			-9.461			-3.154
45300.000			-9.461			-3.154
45402.000			-9.460			-3.153
45501.000			-9.460			-3.153
45601.000			-9.459			-3.153
45701.000			-9.458			-3.153
45800.000			-9.458			-3.153
45900.000			-9.458			-3.153
46000.000			-9.458			-3.153
46100.000			-9.457			-3.152
46201.000			-9.457			-3.152
46301.000			-9.457			-3.152
46401.000			-9.456			-3.152
46501.000			-9.456			-3.152
46600.000			-9.456			-3.152
46700.000			-9.455			-3.152
46801.000			-9.455			-3.152
46900.000			-9.454			-3.151
47000.000			-9.454			-3.151
47102.000			-9.454			-3.151
47201.000			-9.454			-3.151
47300.000			-9.453			-3.151
47401.000			-9.453			-3.151
47500.000			-9.452			-3.151
47600.000			-9.452			-3.151
47701.000			-9.451			-3.150
47800.000			-9.451			-3.150
47901.000			-9.450			-3.150
48002.000			-9.450			-3.150
48100.000			-9.450			-3.150
48200.000			-9.450			-3.150
48301.000			-9.450			-3.150
48400.000			-9.451			-3.150
48500.000			-9.450			-3.150
48601.000			-9.450			-3.150
48701.000			-9.449			-3.150
48801.000			-9.449			-3.150
48901.000			-9.448			-3.149
49000.000			-9.449			-3.150
49100.000			-9.448			-3.149
49200.000			-9.448			-3.149
49300.000			-9.446			-3.149
49401.000			-9.446			-3.149
49501.000			-9.447			-3.149
49601.000			-9.446			-3.149
49701.000			-9.446			-3.149
49800.000			-9.446			-3.149
49900.000			-9.446			-3.149
50001.000			-9.446			-3.149
50100.000			-9.445			-3.148
50200.000			-9.445			-3.148
50302.000			-9.444			-3.148
50401.000			-9.444			-3.148
50501.000			-9.442			-3.147
50601.000			-9.442			-3.147
50700.000			-9.442			-3.147
50800.000			-9.443			-3.148
50901.000			-9.442			-3.147
51000.000			-9.441			-3.147
51101.000			-9.442			-3.147
51202.000			-9.442			-3.147
51300.000			-9.440			-3.147
51400.000			-9.441			-3.147
51501.000			-9.441			-3.147
51600.000			-9.439			-3.146
51700.000			-9.439			-3.146
51801.000			-9.440			-3.147
51901.000			-9.439			-3.146
52001.000			-9.438			-3.146
52101.000			-9.439			-3.146
52200.000			-9.438			-3.146
52300.000			-9.437			-3.146
52400.000			-9.437			-3.146
52500.000			-9.438			-3.146
52601.000			-9.438			-3.146
52701.000			-9.437			-3.146
52801.000			-9.437			-3.146
52901.000			-9.436			-3.145
53000.000			-9.436			-3.145
53100.000			-9.436			-3.145
53201.000			-9.436			-3.145
53300.000			-9.435			-3.145
53400.000			-9.434			-3.145
53502.000			-9.434			-3.145
53601.000			-9.434			-3.145
53700.000			-9.434			-3.145
53801.000			-9.434			-3.145
53900.000			-9.433			-3.144
54000.000			-9.434			-3.145
54101.000			-9.434			-3.145
54200.000			-9.432			-3.144
54301.000			-9.431			-3.144
54402.000			-9.431			-3.144
54500.000			-9.431			-3.144
54600.000			-9.431			-3.144
54701.000			-9.432			-3.144
54800.000			-9.432			-3.144
54900.000			-9.431			-3.144
55001.000			-9.431			-3.144
55101.000			-9.431			-3.144
55201.000			-9.429			-3.143
55301.000			-9.429			-3.143
55400.000			-9.429			-3.143
55500.000			-9.429			-3.143
55600.000			-9.429			-3.143
55700.000			-9.429			-3.143
55801.000			-9.429			-3.143
55901.000			-9.428			-3.143
56001.000			-9.427			-3.142
56101.000			-9.427			-3.142
56200.000			-9.428			-3.143
56300.000			-9.427			-3.142
56401.000			-9.427			-3.142
56500.000			-9.426			-3.142
56600.000			-9.426			-3.142
56702.000			-9.425			-3.142
56801.000			-9.426			-3.142
56900.000			-9.426			-3.142
57001.000			-9.426			-3.142
57100.000			-9.425			-3.142
57200.000			-9.425			-3.142
57301.000			-9.424			-3.141
57400.000			-9.423			-3.141
57501.000			-9.423			-3.141
57602.000			-9.423			-3.141
57700.000			-9.423			-3.141
57800.000			-9.423			-3.141
57901.000			-9.423			-3.141
58000.000			-9.423			-3.141
58100.000			-9.422			-3.141
58201.000			-9.422			-3.141
58301.000			-9.423			-3.141
58401.000			-9.422			-3.141
58501.000			-9.421			-3.140
58600.000			-9.420			-3.140
58700.000			-9.421			-3.140
58800.000			-9.420			-3.140
58900.000			-9.420			-3.140
59001.000			-9.419			-3.140
59101.000			-9.420			-3.140
59201.000			-9.419			-3.140
59301.000			-9.418			-3.139
59400.000			-9.418			-3.139
59500.000			-9.418			-3.139
59601.000			-9.418			-3.139
59700.000			-9.417			-3.139
59800.000			-9.418			-3.139
59902.000			-9.418			-3.139
60001.000			-9.418			-3.139
60100.000			-9.418			-3.139
60201.000			-9.417			-3.139
60300.000			-9.416			-3.139
60400.000			-9.416			-3.139
60501.000			-9.417			-3.139
60600.000			-9.416			-3.139
60701.000			-9.416			-3.139
60802.000			-9.415			-3.138
60900.000			-9.415			-3.138
61000.000			-9.415			-3.138
61101.000			-9.415			-3.138
61200.000			-9.415			-3.138
61300.000			-9.416			-3.139
61401.000			-9.415			-3.138
61501.000			-9.414			-3.138
61601.000			-9.414			-3.138
61701.000			-9.413			-3.138
61800.000			-9.412			-3.137
61900.000			-9.412			-3.137
62000.000			-9.413			-3.138
62100.000			-9.412			-3.137
62201.000			-9.413			-3.138
62301.000			-9.411			-3.137
62401.000			-9.412			-3.137
62501.000			-9.411			-3.137
62600.000			-9.411			-3.137
62700.000			-9.411			-3.137
62801.000			-9.410			-3.137
62900.000			-9.410			-3.137
63000.000			-9.409			-3.136
63102.000			-9.410			-3.137
63201.000			-9.409			-3.136
63300.000			-9.409			-3.136
63401.000			-9.409			-3.136
63500.000			-9.409			-3.136
63600.000			-9.408			-3.136
63701.000			-9.408			-3.136
63800.000			-9.408			-3.136
63901.000			-9.408			-3.136
64002.000			-9.407			-3.136
64100.000			-9.408			-3.136
64200.000			-9.408			-3.136
64301.000			-9.406			-3.135
64400.000			-9.407			-3.136
64500.000			-9.406			-3.135
64602.000			-9.406			-3.135
64701.000			-9.407			-3.136
64801.000			-9.406			-3.135
64901.000			-9.406			-3.135
65000.000			-9.406			-3.135
65100.000			-9.406			-3.135
65200.000			-9.405			-3.135
65300.000			-9.404			-3.135
65401.000			-9.404			-3.135
65501.000			-9.404			-3.135
65601.000			-9.405			-3.135
65701.000			-9.404			-3.135
65800.000			-9.403			-3.134
65900.000			-9.404			-3.135
66001.000			-9.403			-3.134
66100.000			-9.403			-3.134
66200.000			-9.403			-3.134
66302.000			-9.403			-3.134
66401.000			-9.402			-3.134
66500.000			-9.402			-3.134
66601.000			-9.403			-3.134
66700.000			-9.401			-3.134
66800.000			-9.401			-3.134
66901.000			-9.402			-3.134
67000.000			-9.401			-3.134
67101.000			-9.400			-3.133
67202.000			-9.400			-3.133
67300.000			-9.399			-3.133
67400.000			-9.399			-3.133
67501.000			-9.399			-3.133
67600.000			-9.400			-3.133
67700.000			-9.400			-3.133
67801.000			-9.400			-3.133
67901.000			-9.400			-3.133
68001.000			-9.399			-3.133
68101.000			-9.399			-3.133
68200.000			-9.398			-3.133
68300.000			-9.399			-3.133
68400.000			-9.397			-3.132
68500.000			-9.397			-3.132
68601.000			-9.398			-3.133
68700.000			-9.398			-3.133
68801.000			-9.397			-3.132
68902.000			-9.397			-3.132
69000.000			-9.396			-3.132
69100.000			-9.396			-3.132
69201.000			-9.396			-3.132
69300.000			-9.396			-3.132
69400.000			-9.396			-3.132
69501.000			-9.397			-3.132
69601.000			-9.396			-3.132
69701.000			-9.395			-3.132
69801.000			-9.395			-3.132
69900.000			-9.394			-3.131
70000.000			-9.394			-3.131
70101.000			-9.394			-3.131
70200.000			-9.393			-3.131
70300.000			-9.394			-3.131
70401.000			-9.394			-3.131
70501.000			-9.393			-3.131
70601.000			-9.393			-3.131
70701.000			-9.393			-3.131
70800.000			-9.393			-3.131
70900.000			-9.393			-3.131
71001.000			-9.393			-3.131
71100.000			-9.392			-3.131
71200.000			-9.393			-3.131
71302.000			-9.393			-3.131
71401.000			-9.393			-3.131
71500.000			-9.392			-3.131
71600.000			-9.391			-3.130
71700.000			-9.391			-3.130
71801.000			-9.392			-3.131
71900.000			-9.390			-3.130
72000.000			-9.389			-3.130
72102.000			-9.391			-3.130
72201.000			-9.391			-3.130
72300.000			-9.391			-3.130
72401.000			-9.391			-3.130
72500.000			-9.390			-3.130
72600.000			-9.389			-3.130
72701.000			-9.389			-3.130
72800.000			-9.389			-3.130
72901.000			-9.389			-3.130
73002.000			-9.388			-3.129
73100.000			-9.389			-3.130
73200.000			-9.388			-3.129
73301.000			-9.388			-3.129
73400.000			-9.388			-3.129
73500.000			-9.389			-3.130
73601.000			-9.388			-3.129
73700.000			-9.387			-3.129
73801.000			-9.387			-3.129
73902.000			-9.387			-3.129
74000.000			-9.388			-3.129
74100.000			-9.386			-3.129
74201.000			-9.385			-3.128
74300.000			-9.386			-3.129
74400.000			-9.386			-3.129
74501.000			-9.385			-3.128
74601.000			-9.385			-3.128
74702.000			-9.385			-3.128
74800.000			-9.384			-3.128
74900.000			-9.384			-3.128
75001.000			-9.384			-3.128
75100.000			-9.384			-3.128
75200.000			-9.384			-3.128
75301.000			-9.384			-3.128
75401.000			-9.383			-3.128
75501.000			-9.382			-3.127
75602.000			-9.383			-3.128
75700.000			-9.382			-3.127
75800.000			-9.382			-3.127
75901.000			-9.381			-3.127
76000.000			-9.381			-3.127
76100.000			-9.382			-3.127
76201.000			-9.380			-3.127
76301.000			-9.380			-3.127
76401.000			-9.380			-3.127
76501.000			-9.379			-3.126
76600.000			-9.379			-3.126
76700.000			-9.379			-3.126
76801.000			-9.381			-3.127
76900.000			-9.379			-3.126
77000.000			-9.380			-3.127
77102.000			-9.379			-3.126
77201.000			-9.379			-3.126
77300.000			-9.379			-3.126
77401.000			-9.379			-3.126
77500.000			-9.378			-3.126
77600.000			-9.379			-3.126
77701.000			-9.378			-3.126
77800.000			-9.378			-3.126
77902.000			-9.378			-3.126
78001.000			-9.377			-3.126
78101.000			-9.377			-3.126
78201.000			-9.377			-3.126
78300.000			-9.378			-3.126
78400.000			-9.377			-3.126
78501.000			-9.377			-3.126
78600.000			-9.378			-3.126
78700.000			-9.376			-3.125
78802.000			-9.375			-3.125
78901.000			-9.375			-3.125
79000.000			-9.375			-3.125
79101.000			-9.376			-3.125
79200.000			-9.375			-3.125
79300.000			-9.375			-3.125
79401.000			-9.375			-3.125
79500.000			-9.374			-3.125
79601.000			-9.375			-3.125
79702.000			-9.375			-3.125
79801.000			-9.375			-3.125
79900.000			-9.375			-3.125
80001.000			-9.374			-3.125
80100.000			-9.373			-3.124
80200.000			-9.372			-3.124
80301.000			-9.373			-3.124
80401.000			-9.373			-3.124
80501.000			-9.372			-3.124
80602.000			-9.373			-3.124
80700.000			-9.372			-3.124
80800.000			-9.372			-3.124
80901.000			-9.372			-3.124
81000.000			-9.371			-3.124
81100.000			-9.371			-3.124
81200.000			-9.372			-3.124
81301.000			-9.372			-3.124
81402.000			-9.372			-3.124
81500.000			-9.372			-3.124
81600.000			-9.371			-3.124
81701.000			-9.370			-3.123
81800.000			-9.370			-3.123
81900.000			-9.370			-3.123
82001.000			-9.370			-3.123
82101.000			-9.371			-3.124
82201.000			-9.370			-3.123
82301.000			-9.370			-3.123
82400.000			-9.371			-3.124
82500.000			-9.370			-3.123
82601.000			-9.370			-3.123
82700.000			-9.369			-3.123
82800.000			-9.369			-3.123
82902.000			-9.370			-3.123
83001.000			-9.369			-3.123
83100.000			-9.368			-3.123
83201.000			-9.369			-3.123
83300.000			-9.369			-3.123
83400.000			-9.368			-3.123
83501.000			-9.367			-3.122
83600.000			-9.368			-3.123
83701.000			-9.368			-3.123
83802.000			-9.368			-3.123
83901.000			-9.367			-3.122
84000.000			-9.367			-3.122
84101.000			-9.366			-3.122
84200.000			-9.367			-3.122
84300.000			-9.367			-3.122
84400.000			-9.367			-3.122
84500.000			-9.366			-3.122
84602.000			-9.366			-3.122
84701.000			-9.366			-3.122
84800.000			-9.366			-3.122
84901.000			-9.365			-3.122
85000.000			-9.365			-3.122
85100.000			-9.365			-3.122
85201.000			-9.365			-3.122
85300.000			-9.364			-3.121
85401.000			-9.364			-3.121
85502.000			-9.364			-3.121
85600.000			-9.364			-3.121
85700.000			-9.364			-3.121
85801.000			-9.364			-3.121
85900.000			-9.363			-3.121
86000.000			-9.363			-3.121
86101.000			-9.363			-3.121
86201.000			-9.364			-3.121
86301.000			-9.365			-3.122
86401.000			-9.364			-3.121
86500.000			-9.362			-3.121
86600.000			-9.362			-3.121
86701.000			-9.362			-3.121
86800.000			-9.362			-3.121
86900.000			-9.362			-3.121
87001.000			-9.362			-3.121
87101.000			-9.361			-3.120
87201.000			-9.360			-3.120
87301.000			-9.362			-3.121
87400.000			-9.361			-3.120
87500.000			-9.361			-3.120
87600.000			-9.361			-3.120
87700.000			-9.361			-3.120
87801.000			-9.359			-3.120
87901.000			-9.359			-3.120
88001.000			-9.360			-3.120
88101.000			-9.359			-3.120
88200.000			-9.360			-3.120
88300.000			-9.360			-3.120
88401.000			-9.360			-3.120
88500.000			-9.359			-3.120
88600.000			-9.358			-3.119
88702.000			-9.359			-3.120
88801.000			-9.358			-3.119
88901.000			-9.358			-3.119
89001.000			-9.358			-3.119
89100.000			-9.358			-3.119
89200.000			-9.358			-3.119
89301.000			-9.357			-3.119
89400.000			-9.358			-3.119
89500.000			-9.358			-3.119
89602.000			-9.356			-3.119
89701.000			-9.356			-3.119
89800.000			-9.356			-3.119
89901.000			-9.357			-3.119
90000.000			-9.357			-3.119
90100.000			-9.356			-3.119
90201.000			-9.356			-3.119
90300.000			-9.356			-3.119
90401.000			-9.356			-3.119
90502.000			-9.356			-3.119
90601.000			-9.355			-3.118
90700.000			-9.355			-3.118
90800.000			-9.356			-3.119
90900.000			-9.355			-3.118
91001.000			-9.355			-3.118
91100.000			-9.354			-3.118
91200.000			-9.355			-3.118
91302.000			-9.355			-3.118
91401.000			-9.354			-3.118
91500.000			-9.353			-3.118
91601.000			-9.353			-3.118
91700.000			-9.353			-3.118
91800.000			-9.353			-3.118
91901.000			-9.353			-3.118
92000.000			-9.353			-3.118
92101.000			-9.353			-3.118
92202.000			-9.353			-3.118
92300.000			-9.352			-3.117
92400.000			-9.353			-3.118
92501.000			-9.353			-3.118
92600.000			-9.352			-3.117
92700.000			-9.352			-3.117
92801.000			-9.351			-3.117
92901.000			-9.351			-3.117
93001.000			-9.352			-3.117
93101.000			-9.351			-3.117
93200.000			-9.350			-3.117
93300.000			-9.350			-3.117
93401.000			-9.350			-3.117
93500.000			-9.350			-3.117
93600.000			-9.350			-3.117
93702.000			-9.351			-3.117
93801.000			-9.351			-3.117
93900.000			-9.349			-3.116
94000.000			-9.349			-3.116
94100.000			-9.349			-3.116
94201.000			-9.349			-3.116
94300.000			-9.349			-3.116
94400.000			-9.348			-3.116
94502.000			-9.349			-3.116
94601.000			-9.349			-3.116
94700.000			-9.349			-3.116
94801.000			-9.348			-3.116
94900.000			-9.348			-3.116
95000.000			-9.348			-3.116
95101.000			-9.347			-3.116
95200.000			-9.348			-3.116
95301.000			-9.348			-3.116
95402.000			-9.347			-3.116
95501.000			-9.348			-3.116
95600.000			-9.347			-3.116
95701.000			-9.346			-3.115
95800.000			-9.347			-3.116
95900.000			-9.347			-3.116
96001.000			-9.347			-3.116
96100.000			-9.347			-3.116
96201.000			-9.347			-3.116
96302.000			-9.346			-3.115
96400.000			-9.345			-3.115
96500.000			-9.346			-3.115
96601.000			-9.346			-3.115
96700.000			-9.346			-3.115
96800.000			-9.345			-3.115
96901.000			-9.345			-3.115
97001.000			-9.345			-3.115
97102.000			-9.345			-3.115
97200.000			-9.345			-3.115
97300.000			-9.345			-3.115
97401.000			-9.344			-3.115
97500.000			-9.344			-3.115
97600.000			-9.345			-3.115
97701.000			-9.344			-3.115
97800.000			-9.344			-3.115
97901.000			-9.344			-3.115
98002.000			-9.343			-3.114
98100.000			-9.343			-3.114
98200.000			-9.344			-3.115
98301.000			-9.344			-3.115
98400.000			-9.343			-3.114
98500.000			-9.344			-3.115
98601.000			-9.344			-3.115
98701.000			-9.343			-3.114
98801.000			-9.343			-3.114
98901.000			-9.341			-3.114
99000.000			-9.342			-3.114
99100.000			-9.343			-3.114
99201.000			-9.341			-3.114
99300.000			-9.341			-3.114
99400.000			-9.341			-3.114
99502.000			-9.341			-3.114
99601.000			-9.342			-3.114
99700.000			-9.342			-3.114
99801.000			-9.341			-3.114
99900.000			-9.341			-3.114
100000.000			-9.341			-3.114
100101.000			-9.341			-3.114
100200.000			-9.341			-3.114
100302.000			-9.340			-3.113
100401.000			-9.341			-3.114
100500.000			-9.341			-3.114
100601.000			-9.340			-3.113
100700.000			-9.340			-3.113
100800.000			-9.341			-3.114
100901.000			-9.340			-3.113
101000.000			-9.339			-3.113
101101.000			-9.339			-3.113
101202.000			-9.339			-3.113
101300.000			-9.339			-3.113
101400.000			-9.338			-3.113
101501.000			-9.337			-3.112
101600.000			-9.337			-3.112
101700.000			-9.338			-3.113
101801.000			-9.338			-3.113
101901.000			-9.338			-3.113
102001.000			-9.338			-3.113
102102.000			-9.338			-3.113
102200.000			-9.337			-3.112
102300.000			-9.337			-3.112
102401.000			-9.337			-3.112
102500.000			-9.338			-3.113
102600.000			-9.338			-3.113
102701.000			-9.337			-3.112
102801.000			-9.337			-3.112
102901.000			-9.336			-3.112
103001.000			-9.336			-3.112
103100.000			-9.336			-3.112
103200.000			-9.337			-3.112
103301.000			-9.337			-3.112
103400.000			-9.336			-3.112
103500.000			-9.335			-3.112
103602.000			-9.335			-3.112
103701.000			-9.335			-3.112
103801.000			-9.335			-3.112
103900.000			-9.336			-3.112
104000.000			-9.335			-3.112
104101.000			-9.335			-3.112
104200.000			-9.335			-3.112
104300.000			-9.335			-3.112
104402.000			-9.335			-3.112
104501.000			-9.335			-3.112
104600.000			-9.334			-3.111
104701.000			-9.333			-3.111
104800.000			-9.334			-3.111
104900.000			-9.333			-3.111
105001.000			-9.334			-3.111
105100.000			-9.334			-3.111
105200.000			-9.334			-3.111
105302.000			-9.334			-3.111
105401.000			-9.333			-3.111
105500.000			-9.333			-3.111
105601.000			-9.333			-3.111
105700.000			-9.333			-3.111
105800.000			-9.332			-3.111
105901.000			-9.332			-3.111
106000.000			-9.333			-3.111
106101.000			-9.332			-3.111
106202.000			-9.332			-3.111
106300.000			-9.332			-3.111
106400.000			-9.333			-3.111
106501.000			-9.333			-3.111
106600.000			-9.333			-3.111
106700.000			-9.332			-3.111
106800.000			-9.331			-3.110
106901.000			-9.332			-3.111
107002.000			-9.331			-3.110
107100.000			-9.332			-3.111
107200.000			-9.330			-3.110
107301.000			-9.330			-3.110
107400.000			-9.330			-3.110
107500.000			-9.330			-3.110
107601.000			-9.329			-3.110
107701.000			-9.329			-3.110
107801.000			-9.329			-3.110
107901.000			-9.330			-3.110
108000.000			-9.329			-3.110
108100.000			-9.329			-3.110
108201.000			-9.330			-3.110
108300.000			-9.330			-3.110
108400.000			-9.330			-3.110
108501.000			-9.329			-3.110
108601.000			-9.329			-3.110
108701.000			-9.328			-3.109
108801.000			-9.328			-3.109
108900.000			-9.328			-3.109
109000.000			-9.328			-3.109
109101.000			-9.327			-3.109
109200.000			-9.327			-3.109
109300.000			-9.328			-3.109
109402.000			-9.328			-3.109
109501.000			-9.327			-3.109
109600.000			-9.326			-3.109
109701.000			-9.327			-3.109
109800.000			-9.327			-3.109
109900.000			-9.327			-3.109
110000.000			-9.326			-3.109
110100.000			-9.326			-3.109
110201.000			-9.326			-3.109
110301.000			-9.326			-3.109
110401.000			-9.326			-3.109
110501.000			-9.325			-3.108
110600.000			-9.326			-3.109
110700.000			-9.325			-3.108
110801.000			-9.325			-3.108
110900.000			-9.325			-3.108
111000.000			-9.325			-3.108
111102.000			-9.325			-3.108
111201.000			-9.325			-3.108
111300.000			-9.325			-3.108
111401.000			-9.325			-3.108
111500.000			-9.325			-3.108
111600.000			-9.324			-3.108
111701.000			-9.324			-3.108
111800.000			-9.325			-3.108
111901.000			-9.325			-3.108
112002.000			-9.324			-3.108
112100.000			-9.324			-3.108
112200.000			-9.324			-3.108
112301.000			-9.324			-3.108
112400.000			-9.323			-3.108
112500.000			-9.324			-3.108
112601.000			-9.324			-3.108
112701.000			-9.324			-3.108
112801.000			-9.322			-3.107
112901.000			-9.323			-3.108
113000.000			-9.323			-3.108
113100.000			-9.323			-3.108
113200.000			-9.323			-3.108
113300.000			-9.322			-3.107
113401.000			-9.323			-3.108
113501.000			-9.322			-3.107
113601.000			-9.321			-3.107
113701.000			-9.321			-3.107
113800.000			-9.322			-3.107
113900.000			-9.321			-3.107
114001.000			-9.321			-3.107
114100.000			-9.322			-3.107
114200.000			-9.321			-3.107
114301.000			-9.321			-3.107
114401.000			-9.321			-3.107
114501.000			-9.321			-3.107
114601.000			-9.320			-3.107
114700.000			-9.320			-3.107
114800.000			-9.321			-3.107
114901.000			-9.320			-3.107
115000.000			-9.320			-3.107
115100.000			-9.320			-3.107
115202.000			-9.319			-3.106
115301.000			-9.318			-3.106
115400.000			-9.319			-3.106
115501.000			-9.319			-3.106
115600.000			-9.319			-3.106
115700.000			-9.319			-3.106
115801.000			-9.319			-3.106
115900.000			-9.319			-3.106
116001.000			-9.319			-3.106
116102.000			-9.320			-3.107
116201.000			-9.319			-3.106
116300.000			-9.319			-3.106
116400.000			-9.318			-3.106
116500.000			-9.318			-3.106
116601.000			-9.317			-3.106
116700.000			-9.320			-3.107
116800.000			-9.319			-3.106
116902.000			-9.317			-3.106
117001.000			-9.318			-3.106
117100.000			-9.318			-3.106
117201.000			-9.318			-3.106
117300.000			-9.318			-3.106
117400.000			-9.318			-3.106
117501.000			-9.316			-3.105
117600.000			-9.316			-3.105
117701.000			-9.315			-3.105
117802.000			-9.316			-3.105
117900.000			-9.317			-3.106
118000.000			-9.317			-3.106
118101.000			-9.316			-3.105
118200.000			-9.316			-3.105
118300.000			-9.316			-3.105
118401.000			-9.316			-3.105
118501.000			-9.316			-3.105
118601.000			-9.316			-3.105
118702.000			-9.316			-3.105
118800.000			-9.316			-3.105
118900.000			-9.315			-3.105
119001.000			-9.315			-3.105
119100.000			-9.315			-3.105
119200.000			-9.315			-3.105
119301.000			-9.316			-3.105
119401.000			-9.316			-3.105
119502.000			-9.314			-3.105
119600.000			-9.315			-3.105
119700.000			-9.314			-3.105
119801.000			-9.314			-3.105
119900.000			-9.314			-3.105
120000.000			-9.314			-3.105
120101.000			-9.312			-3.104
120201.000			-9.312			-3.104
120301.000			-9.313			-3.104
120401.000			-9.314			-3.105
120500.000			-9.312			-3.104
120600.000			-9.313			-3.104
120701.000			-9.313			-3.104
120800.000			-9.312			-3.104
120900.000			-9.312			-3.104
121002.000			-9.312			-3.104
121101.000			-9.313			-3.104
121201.000			-9.311			-3.104
121301.000			-9.311			-3.104
121400.000			-9.311			-3.104
121500.000			-9.312			-3.104
121601.000			-9.312			-3.104
121700.000			-9.311			-3.104
121800.000			-9.311			-3.104
121902.000			-9.311			-3.104
122001.000			-9.311			-3.104
122100.000			-9.310			-3.103
122201.000			-9.311			-3.104
122300.000			-9.311			-3.104
122400.000			-9.311			-3.104
122501.000			-9.310			-3.103
122600.000			-9.310			-3.103
122702.000			-9.310			-3.103
122801.000			-9.311			-3.104
122900.000			-9.310			-3.103
123001.000			-9.309			-3.103
123100.000			-9.310			-3.103
123200.000			-9.310			-3.103
123301.000			-9.309			-3.103
123400.000			-9.308			-3.103
123501.000			-9.308			-3.103
123602.000			-9.309			-3.103
123700.000			-9.308			-3.103
123800.000			-9.308			-3.103
123901.000			-9.309			-3.103
124000.000			-9.309			-3.103
124100.000			-9.308			-3.103
124201.000			-9.309			-3.103
124301.000			-9.309			-3.103
124401.000			-9.308			-3.103
124501.000			-9.307			-3.102
124600.000			-9.307			-3.102
124700.000			-9.307			-3.102
124801.000			-9.307			-3.102
124900.000			-9.307			-3.102
125000.000			-9.306			-3.102
125101.000			-9.307			-3.102
125201.000			-9.307			-3.102
125301.000			-9.306			-3.102
125401.000			-9.307			-3.102
125500.000			-9.306			-3.102
125600.000			-9.305			-3.102
125701.000			-9.306			-3.102
125800.000			-9.305			-3.102
125900.000			-9.306			-3.102
126002.000			-9.305			-3.102
126101.000			-9.304			-3.101
126201.000			-9.304			-3.101
126300.000			-9.305			-3.102
126400.000			-9.305			-3.102
126501.000			-9.305			-3.102
126600.000			-9.306			-3.102
126700.000			-9.305			-3.102
126802.000			-9.306			-3.102
126901.000			-9.306			-3.102
127001.000			-9.304			-3.101
127101.000			-9.304			-3.101
127200.000			-9.304			-3.101
127300.000			-9.303			-3.101
127401.000			-9.303			-3.101
127500.000			-9.304			-3.101
127600.000			-9.303			-3.101
127702.000			-9.303			-3.101
127801.000			-9.303			-3.101
127900.000			-9.303			-3.101
128001.000			-9.303			-3.101
128100.000			-9.303			-3.101
128200.000			-9.302			-3.101
128301.000			-9.301			-3.100
128400.000			-9.303			-3.101
128501.000			-9.303			-3.101
128602.000			-9.303			-3.101
128700.000			-9.302			-3.101
128800.000			-9.301			-3.100
128901.000			-9.301			-3.100
129000.000			-9.301			-3.100
129100.000			-9.301			-3.100
129200.000			-9.301			-3.100
129300.000			-9.301			-3.100
129402.000			-9.302			-3.101
129501.000			-9.301			-3.100
129600.000			-9.301			-3.100
129701.000			-9.300			-3.100
129800.000			-9.300			-3.100
129900.000			-9.300			-3.100
130001.000			-9.302			-3.101
130100.000			-9.300			-3.100
130201.000			-9.301			-3.100
130302.000			-9.300			-3.100
130400.000			-9.299			-3.100
130500.000			-9.299			-3.100
130601.000			-9.300			-3.100
130700.000			-9.300			-3.100
130800.000			-9.299			-3.100
130901.000			-9.299			-3.100
131001.000			-9.300			-3.100
131101.000			-9.300			-3.100
131202.000			-9.299			-3.100
131300.000			-9.299			-3.100
131400.000			-9.299			-3.100
131501.000			-9.299			-3.100
131600.000			-9.299			-3.100
131700.000			-9.299			-3.100
131801.000			-9.298			-3.099
131900.000			-9.298			-3.099
132001.000			-9.298			-3.099
132102.000			-9.298			-3.099
132200.000			-9.298			-3.099
132300.000			-9.298			-3.099
132400.000			-9.298			-3.099
132500.000			-9.298			-3.099
132601.000			-9.297			-3.099
132700.000			-9.296			-3.099
132800.000			-9.297			-3.099
132902.000			-9.297			-3.099
133001.000			-9.297			-3.099
133101.000			-9.297			-3.099
133201.000			-9.297			-3.099
133300.000			-9.296			-3.099
133400.000			-9.297			-3.099
133501.000			-9.297			-3.099
133600.000			-9.296			-3.099
133700.000			-9.296			-3.099
133802.000			-9.297			-3.099
133901.000			-9.296			-3.099
134001.000			-9.297			-3.099
134101.000			-9.295			-3.098
134200.000			-9.295			-3.098
134300.000			-9.295			-3.098
134401.000			-9.296			-3.099
134500.000			-9.296			-3.099
134600.000			-9.296			-3.099
134701.000			-9.296			-3.099
134801.000			-9.296			-3.099
134901.000			-9.294			-3.098
135001.000			-9.294			-3.098
135100.000			-9.295			-3.098
135200.000			-9.294			-3.098
135301.000			-9.294			-3.098
135400.000			-9.294			-3.098
135500.000			-9.294			-3.098
135600.000			-9.294			-3.098
135701.000			-9.294			-3.098
135802.000			-9.294			-3.098
135901.000			-9.294			-3.098
136000.000			-9.294			-3.098
136101.000			-9.294			-3.098
136200.000			-9.293			-3.098
136300.000			-9.293			-3.098
136401.000			-9.293			-3.098
136500.000			-9.292			-3.097
136600.000			-9.292			-3.097
136702.000			-9.291			-3.097
136801.000			-9.292			-3.097
136900.000			-9.293			-3.098
137001.000			-9.293			-3.098
137100.000			-9.293			-3.098
137200.000			-9.292			-3.097
137301.000			-9.293			-3.098
137400.000			-9.292			-3.097
137500.000			-9.292			-3.097
137602.000			-9.291			-3.097
137701.000			-9.292			-3.097
137800.000			-9.291			-3.097
137901.000			-9.291			-3.097
138000.000			-9.291			-3.097
138100.000			-9.291			-3.097
138201.000			-9.292			-3.097
138300.000			-9.291			-3.097
138400.000			-9.291			-3.097
138502.000			-9.290			-3.097
138601.000			-9.291			-3.097
138702.000			-9.291			-3.097
138800.000			-9.290			-3.097
138900.000			-9.289			-3.096
139001.000			-9.290			-3.097
139100.000			-9.290			-3.097
139200.000			-9.290			-3.097
139301.000			-9.290			-3.097
139400.000			-9.290			-3.097
139501.000			-9.289			-3.096
139602.000			-9.290			-3.097
139700.000			-9.289			-3.096
139800.000			-9.290			-3.097
139901.000			-9.289			-3.096
140000.000			-9.289			-3.096
140100.000			-9.290			-3.097
140201.000			-9.289			-3.096
140300.000			-9.289			-3.096
140401.000			-9.289			-3.096
140502.000			-9.289			-3.096
140601.000			-9.289			-3.096
140700.000			-9.289			-3.096
140801.000			-9.288			-3.096
140900.000			-9.289			-3.096
141000.000			-9.289			-3.096
141101.000			-9.288			-3.096
141200.000			-9.288			-3.096
141300.000			-9.287			-3.096
141402.000			-9.288			-3.096
141501.000			-9.288			-3.096
141600.000			-9.287			-3.096
141701.000			-9.287			-3.096
141800.000			-9.288			-3.096
141900.000			-9.287			-3.096
142000.000			-9.286			-3.095
142100.000			-9.286			-3.095
142201.000			-9.286			-3.095
142301.000			-9.287			-3.096
142401.000			-9.286			-3.095
142501.000			-9.286			-3.095
142600.000			-9.286			-3.095
142700.000			-9.286			-3.095
142801.000			-9.286			-3.095
142900.000			-9.285			-3.095
143000.000			-9.284			-3.095
143101.000			-9.284			-3.095
143201.000			-9.285			-3.095
143301.000			-9.285			-3.095
143402.000			-9.284			-3.095
143500.000			-9.284			-3.095
143600.000			-9.285			-3.095
143701.000			-9.286			-3.095
143800.000			-9.286			-3.095
143900.000			-9.284			-3.095
144001.000			-9.284			-3.095
144101.000			-9.284			-3.095
144201.000			-9.284			-3.095
144302.000			-9.284			-3.095
144400.000			-9.284			-3.095
144500.000			-9.284			-3.095
144601.000			-9.285			-3.095
144700.000			-9.284			-3.095
144800.000			-9.285			-3.095
144901.000			-9.284			-3.095
145000.000			-9.284			-3.095
145102.000			-9.284			-3.095
145201.000			-9.283			-3.094
145300.000			-9.282			-3.094
145401.000			-9.283			-3.094
145500.000			-9.283			-3.094
145600.000			-9.283			-3.094
145701.000			-9.282			-3.094
145800.000			-9.283			-3.094
145900.000			-9.283			-3.094
146002.000			-9.282			-3.094
146101.000			-9.282			-3.094
146201.000			-9.283			-3.094
146301.000			-9.282			-3.094
146400.000			-9.282			-3.094
146500.000			-9.282			-3.094
146601.000			-9.283			-3.094
146700.000			-9.282			-3.094
146800.000			-9.282			-3.094
146901.000			-9.281			-3.094
147001.000			-9.282			-3.094
147101.000			-9.282			-3.094
147201.000			-9.281			-3.094
147300.000			-9.281			-3.094
147400.000			-9.281			-3.094
147501.000			-9.282			-3.094
147600.000			-9.281			-3.094
147700.000			-9.280			-3.093
147801.000			-9.281			-3.094
147901.000			-9.281			-3.094
148001.000			-9.280			-3.093
148102.000			-9.279			-3.093
148200.000			-9.280			-3.093
148300.000			-9.280			-3.093
148400.000			-9.280			-3.093
148500.000			-9.280			-3.093
148601.000			-9.280			-3.093
148700.000			-9.280			-3.093
148800.000			-9.279			-3.093
148902.000			-9.280			-3.093
149001.000			-9.279			-3.093
149101.000			-9.279			-3.093
149201.000			-9.278			-3.093
149300.000			-9.278			-3.093
149400.000			-9.279			-3.093
149501.000			-9.279			-3.093
149600.000			-9.278			-3.093
149700.000			-9.279			-3.093
149801.000			-9.278			-3.093
149901.000			-9.278			-3.093
150001.000			-9.278			-3.093
150101.000			-9.278			-3.093
150200.000			-9.278			-3.093
150300.000			-9.278			-3.093
150401.000			-9.279			-3.093
150500.000			-9.279			-3.093
150600.000			-9.279			-3.093
150701.000			-9.278			-3.093
150801.000			-9.277			-3.092
150901.000			-9.278			-3.093
151002.000			-9.278			-3.093
151100.000			-9.277			-3.092
151200.000			-9.278			-3.093
151301.000			-9.276			-3.092
151400.000			-9.277			-3.092
151500.000			-9.278			-3.093
151600.000			-9.276			-3.092
151700.000			-9.276			-3.092
151802.000			-9.276			-3.092
151901.000			-9.276			-3.092
152001.000			-9.278			-3.093
152101.000			-9.276			-3.092
152200.000			-9.275			-3.092
152300.000			-9.276			-3.092
152401.000			-9.276			-3.092
152500.000			-9.276			-3.092
152600.000			-9.276			-3.092
152702.000			-9.276			-3.092
152801.000			-9.275			-3.092
152901.000			-9.275			-3.092
153001.000			-9.275			-3.092
153100.000			-9.275			-3.092
153200.000			-9.276			-3.092
153301.000			-9.276			-3.092
153400.000			-9.275			-3.092
153500.000			-9.274			-3.091
153601.000			-9.275			-3.092
153701.000			-9.275			-3.092
153801.000			-9.275			-3.092
153901.000			-9.274			-3.091
154000.000			-9.274			-3.091
154100.000			-9.274			-3.091
154201.000			-9.274			-3.091
154300.000			-9.275			-3.092
154400.000			-9.273			-3.091
154501.000			-9.273			-3.091
154601.000			-9.274			-3.091
154702.000			-9.273			-3.091
154801.000			-9.273			-3.091
154900.000			-9.272			-3.091
155001.000			-9.273			-3.091
155100.000			-9.273			-3.091
155200.000			-9.274			-3.091
155301.000			-9.273			-3.091
155400.000			-9.273			-3.091
155501.000			-9.273			-3.091
155602.000			-9.273			-3.091
155701.000			-9.271			-3.090
155800.000			-9.271			-3.090
155901.000			-9.272			-3.091
156000.000			-9.272			-3.091
156100.000			-9.272			-3.091
156201.000			-9.272			-3.091
156300.000			-9.272			-3.091
156401.000			-9.272			-3.091
156502.000			-9.272			-3.091
156601.000			-9.271			-3.090
156700.000			-9.269			-3.090
156801.000			-9.270			-3.090
156900.000			-9.271			-3.090
157000.000			-9.272			-3.091
157101.000			-9.271			-3.090
157200.000			-9.271			-3.090
157300.000			-9.271			-3.090
157402.000			-9.271			-3.090
157501.000			-9.270			-3.090
157600.000			-9.271			-3.090
157701.000			-9.271			-3.090
157800.000			-9.271			-3.090
157900.000			-9.270			-3.090
158000.000			-9.270			-3.090
158100.000			-9.270			-3.090
158201.000			-9.270			-3.090
158301.000			-9.270			-3.090
158401.000			-9.270			-3.090
158502.000			-9.271			-3.090
158600.000			-9.269			-3.090
158700.000			-9.269			-3.090
158801.000			-9.269			-3.090
158900.000			-9.269			-3.090
159000.000			-9.269			-3.090
159101.000			-9.269			-3.090
159200.000			-9.270			-3.090
159301.000			-9.269			-3.090
159402.000			-9.269			-3.090
159501.000			-9.269			-3.090
159600.000			-9.269			-3.090
159701.000			-9.269			-3.090
159800.000			-9.269			-3.090
159900.000			-9.268			-3.089
160001.000			-9.268			-3.089
160100.000			-9.267			-3.089
160200.000			-9.267			-3.089
160302.000			-9.266			-3.089
160401.000			-9.266			-3.089
160500.000			-9.267			-3.089
160601.000			-9.267			-3.089
160700.000			-9.267			-3.089
160800.000			-9.267			-3.089
160901.000			-9.267			-3.089
161000.000			-9.267			-3.089
161100.000			-9.267			-3.089
161202.000			-9.267			-3.089
161301.000			-9.267			-3.089
161402.000			-9.266			-3.089
161500.000			-9.266			-3.089
161600.000			-9.266			-3.089
161701.000			-9.266			-3.089
161800.000			-9.267			-3.089
161900.000			-9.266			-3.089
162001.000			-9.266			-3.089
162100.000			-9.266			-3.089
162201.000			-9.265			-3.088
162302.000			-9.264			-3.088
162400.000			-9.266			-3.089
162500.000			-9.266			-3.089
162601.000			-9.266			-3.089
162700.000			-9.266			-3.089
162800.000			-9.265			-3.088
162901.000			-9.265			-3.088
163000.000			-9.265			-3.088
163101.000			-9.265			-3.088
163202.000			-9.265			-3.088
163301.000			-9.264			-3.088
163400.000			-9.264			-3.088
163501.000			-9.264			-3.088
163600.000			-9.265			-3.088
163700.000			-9.264			-3.088
163801.000			-9.263			-3.088
163900.000			-9.263			-3.088
164000.000			-9.263			-3.088
164102.000			-9.264			-3.088
164201.000			-9.265			-3.088
164300.000			-9.264			-3.088
164400.000			-9.263			-3.088
164500.000			-9.263			-3.088
164601.000			-9.264			-3.088
164700.000			-9.263			-3.088
164800.000			-9.263			-3.088
164901.000			-9.264			-3.088
165001.000			-9.263			-3.088
165101.000			-9.263			-3.088
165201.000			-9.262			-3.087
165300.000			-9.262			-3.087
165400.000			-9.262			-3.087
165501.000			-9.262			-3.087
165600.000			-9.263			-3.088
165700.000			-9.263			-3.088
165801.000			-9.262			-3.087
165901.000			-9.261			-3.087
166001.000			-9.261			-3.087
166102.000			-9.261			-3.087
166200.000			-9.262			-3.087
166300.000			-9.262			-3.087
166401.000			-9.262			-3.087
166500.000			-9.261			-3.087
166600.000			-9.262			-3.087
166701.000			-9.261			-3.087
166801.000			-9.261			-3.087
166901.000			-9.261			-3.087
167002.000			-9.261			-3.087
167100.000			-9.261			-3.087
167200.000			-9.261			-3.087
167301.000			-9.261			-3.087
167400.000			-9.261			-3.087
167500.000			-9.260			-3.087
167600.000			-9.260			-3.087
167700.000			-9.260			-3.087
167802.000			-9.259			-3.086
167901.000			-9.259			-3.086
168001.000			-9.260			-3.087
168101.000			-9.261			-3.087
168200.000			-9.260			-3.087
168300.000			-9.260			-3.087
168401.000			-9.260			-3.087
168500.000			-9.259			-3.086
168600.000			-9.259			-3.086
168701.000			-9.260			-3.087
168801.000			-9.260			-3.087
168901.000			-9.260			-3.087
169001.000			-9.259			-3.086
169100.000			-9.259			-3.086
169200.000			-9.259			-3.086
169301.000			-9.259			-3.086
169400.000			-9.258			-3.086
169500.000			-9.258			-3.086
169601.000			-9.258			-3.086
169701.000			-9.258			-3.086
169801.000			-9.258			-3.086
169902.000			-9.258			-3.086
170000.000			-9.257			-3.086
170100.000			-9.258			-3.086
170201.000			-9.258			-3.086
170300.000			-9.257			-3.086
170400.000			-9.257			-3.086
170501.000			-9.258			-3.086
170600.000			-9.258			-3.086
170702.000			-9.258			-3.086
170801.000			-9.257			-3.086
170901.000			-9.257			-3.086
171001.000			-9.257			-3.086
171100.000			-9.257			-3.086
171200.000			-9.256			-3.085
171301.000			-9.257			-3.086
171400.000			-9.257			-3.086
171500.000			-9.256			-3.085
171602.000			-9.256			-3.085
171701.000			-9.256			-3.085
171801.000			-9.257			-3.086
171901.000			-9.256			-3.085
172000.000			-9.256			-3.085
172100.000			-9.257			-3.086
172201.000			-9.257			-3.086
172300.000			-9.256			-3.085
172400.000			-9.256			-3.085
172501.000			-9.256			-3.085
172601.000			-9.256			-3.085
172701.000			-9.255			-3.085
172801.000			-9.256			-3.085
172900.000			-9.255			-3.085
173000.000			-9.254			-3.085
173101.000			-9.254			-3.085
173200.000			-9.254			-3.085
173300.000			-9.255			-3.085
173401.000			-9.256			-3.085
173501.000			-9.256			-3.085
173601.000			-9.255			-3.085
173701.000			-9.255			-3.085
173800.000			-9.255			-3.085
173900.000			-9.255			-3.085
174000.000			-9.255			-3.085
174100.000			-9.255			-3.085
174201.000			-9.255			-3.085
174300.000			-9.254			-3.085
174400.000			-9.255			-3.085
174502.000			-9.254			-3.085
174601.000			-9.253			-3.084
174700.000			-9.254			-3.085
174801.000			-9.253			-3.084
174900.000			-9.253			-3.084
175000.000			-9.253			-3.084
175101.000			-9.254			-3.085
175200.000			-9.254			-3.085
175300.000			-9.253			-3.084
175402.000			-9.252			-3.084
175501.000			-9.253			-3.084
175601.000			-9.252			-3.084
175701.000			-9.252			-3.084
175800.000			-9.252			-3.084
175900.000			-9.252			-3.084
176001.000			-9.253			-3.084
176100.000			-9.253			-3.084
176200.000			-9.252			-3.084
176302.000			-9.252			-3.084
176401.000			-9.252			-3.084
176501.000			-9.251			-3.084
176601.000			-9.251			-3.084
176700.000			-9.251			-3.084
176800.000			-9.251			-3.084
176901.000			-9.252			-3.084
177000.000			-9.251			-3.084
177100.000			-9.250			-3.083
177200.000			-9.250			-3.083
177301.000			-9.250			-3.083
177402.000			-9.251			-3.084
177501.000			-9.251			-3.084
177600.000			-9.251			-3.084
177701.000			-9.251			-3.084
177800.000			-9.251			-3.084
177900.000			-9.250			-3.083
178001.000			-9.251			-3.084
178100.000			-9.251			-3.084
178201.000			-9.251			-3.084
178302.000			-9.251			-3.084
178401.000			-9.250			-3.083
178500.000			-9.250			-3.083
178601.000			-9.250			-3.083
178700.000			-9.250			-3.083
178800.000			-9.250			-3.083
178901.000			-9.249			-3.083
179000.000			-9.249			-3.083
179100.000			-9.249			-3.083
179202.000			-9.250			-3.083
179301.000			-9.249			-3.083
179401.000			-9.248			-3.083
179501.000			-9.248			-3.083
179600.000			-9.249			-3.083
179700.000			-9.249			-3.083
179801.000			-9.249			-3.083
179900.000			-9.250			-3.083
180000.000			-9.248			-3.083
180101.000			-9.248			-3.083
180201.000			-9.248			-3.083
180302.000			-9.249			-3.083
180400.000			-9.249			-3.083
180500.000			-9.249			-3.083
180601.000			-9.248			-3.083
180700.000			-9.248			-3.083
180800.000			-9.247			-3.082
180901.000			-9.247			-3.082
181000.000			-9.247			-3.082
181101.000			-9.247			-3.082
181202.000			-9.247			-3.082
181301.000			-9.248			-3.083
181400.000			-9.247			-3.082
181501.000			-9.246			-3.082
181600.000			-9.247			-3.082
181700.000			-9.247			-3.082
181801.000			-9.247			-3.082
181900.000			-9.247			-3.082
182000.000			-9.247			-3.082
182102.000			-9.246			-3.082
182201.000			-9.247			-3.082
182300.000			-9.247			-3.082
182401.000			-9.247			-3.082
182500.000			-9.246			-3.082
182600.000			-9.246			-3.082
182701.000			-9.245			-3.082
182800.000			-9.246			-3.082
182900.000			-9.246			-3.082
183002.000			-9.245			-3.082
183101.000			-9.245			-3.082
183200.000			-9.245			-3.082
183301.000			-9.246			-3.082
183400.000			-9.245			-3.082
183500.000			-9.245			-3.082
183600.000			-9.244			-3.081
183700.000			-9.245			-3.082
183801.000			-9.245			-3.082
183901.000			-9.245			-3.082
184001.000			-9.245			-3.082
184102.000			-9.246			-3.082
184200.000			-9.245			-3.082
184300.000			-9.244			-3.081
184401.000			-9.244			-3.081
184500.000			-9.244			-3.081
184600.000			-9.244			-3.081
184701.000			-9.245			-3.082
184801.000			-9.244			-3.081
184901.000			-9.244			-3.081
185002.000			-9.243			-3.081
185100.000			-9.243			-3.081
185200.000			-9.243			-3.081
185301.000			-9.244			-3.081
185400.000			-9.244			-3.081
185500.000			-9.243			-3.081
185601.000			-9.244			-3.081
185700.000			-9.243			-3.081
185801.000			-9.244			-3.081
185902.000			-9.244			-3.081
186001.000			-9.243			-3.081
186100.000			-9.242			-3.081
186201.000			-9.243			-3.081
186300.000			-9.242			-3.081
186400.000			-9.242			-3.081
186501.000			-9.242			-3.081
186600.000			-9.242			-3.081
186702.000			-9.242			-3.081
186801.000			-9.243			-3.081
186901.000			-9.242			-3.081
187001.000			-9.242			-3.081
187100.000			-9.242			-3.081
187200.000			-9.242			-3.081
187301.000			-9.241			-3.080
187400.000			-9.242			-3.081
187500.000			-9.242			-3.081
187601.000			-9.242			-3.081
187701.000			-9.242			-3.081
187801.000			-9.242			-3.081
187901.000			-9.240			-3.080
188000.000			-9.240			-3.080
188100.000			-9.241			-3.080
188201.000			-9.241			-3.080
188300.000			-9.242			-3.081
188400.000			-9.242			-3.081
188501.000			-9.242			-3.081
188601.000			-9.242			-3.081
188701.000			-9.241			-3.080
188802.000			-9.239			-3.080
188900.000			-9.241			-3.080
189000.000			-9.240			-3.080
189101.000			-9.240			-3.080
189200.000			-9.240			-3.080
189300.000			-9.241			-3.080
189401.000			-9.241			-3.080
189500.000			-9.240			-3.080
189601.000			-9.241			-3.080
189702.000			-9.241			-3.080
189801.000			-9.240			-3.080
189900.000			-9.239			-3.080
190000.000			-9.239			-3.080
190100.000			-9.239			-3.080
190201.000			-9.240			-3.080
190300.000			-9.239			-3.080
190400.000			-9.239			-3.080
190502.000			-9.238			-3.079
190601.000			-9.240			-3.080
190701.000			-9.239			-3.080
190801.000			-9.239			-3.080
190900.000			-9.239			-3.080
191000.000			-9.240			-3.080
191101.000			-9.238			-3.079
191200.000			-9.238			-3.079
191300.000			-9.238			-3.079
191401.000			-9.238			-3.079
191501.000			-9.239			-3.080
191601.000			-9.239			-3.080
191701.000			-9.238			-3.079
191800.000			-9.238			-3.079
191900.000			-9.238			-3.079
192001.000			-9.237			-3.079
192100.000			-9.237			-3.079
192200.000			-9.237			-3.079
192301.000			-9.237			-3.079
192401.000			-9.237			-3.079
192501.000			-9.237			-3.079
192602.000			-9.237			-3.079
192700.000			-9.238			-3.079
192800.000			-9.238			-3.079
192901.000			-9.237			-3.079
193000.000			-9.236			-3.079
193100.000			-9.236			-3.079
193200.000			-9.237			-3.079
193300.000			-9.236			-3.079
193402.000			-9.237			-3.079
193501.000			-9.237			-3.079
193600.000			-9.237			-3.079
193701.000			-9.237			-3.079
193800.000			-9.236			-3.079
193900.000			-9.237			-3.079
194001.000			-9.236			-3.079
194100.000			-9.236			-3.079
194200.000			-9.237			-3.079
194302.000			-9.236			-3.079
194401.000			-9.236			-3.079
194501.000			-9.236			-3.079
194601.000			-9.236			-3.079
194700.000			-9.236			-3.079
194800.000			-9.237			-3.079
194901.000			-9.236			-3.079
195000.000			-9.235			-3.078
195100.000			-9.235			-3.078
195201.000			-9.236			-3.079
195301.000			-9.235			-3.078
195401.000			-9.234			-3.078
195501.000			-9.235			-3.078
195600.000			-9.234			-3.078
195700.000			-9.234			-3.078
195801.000			-9.234			-3.078
195900.000			-9.235			-3.078
196000.000			-9.234			-3.078
196101.000			-9.234			-3.078
196201.000			-9.235			-3.078
196302.000			-9.235			-3.078
196401.000			-9.234			-3.078
196500.000			-9.233			-3.078
196601.000			-9.234			-3.078
196700.000			-9.233			-3.078
196800.000			-9.234			-3.078
196901.000			-9.234			-3.078
197000.000			-9.234			-3.078
197100.000			-9.234			-3.078
197202.000			-9.233			-3.078
197301.000			-9.233			-3.078
197400.000			-9.234			-3.078
197501.000			-9.234			-3.078
197600.000			-9.233			-3.078
197700.000			-9.233			-3.078
197801.000			-9.233			-3.078
197900.000			-9.233			-3.078
198000.000			-9.233			-3.078
198102.000			-9.233			-3.078
198201.000			-9.233			-3.078
198301.000			-9.234			-3.078
198401.000			-9.233			-3.078
198500.000			-9.233			-3.078
198600.000			-9.234			-3.078
198701.000			-9.232			-3.077
198800.000			-9.231			-3.077
198900.000			-9.233			-3.078
199001.000			-9.233			-3.078
199101.000			-9.233			-3.078
199201.000			-9.233			-3.078
199301.000			-9.233			-3.078
199400.000			-9.231			-3.077
199500.000			-9.231			-3.077
199600.000			-9.232			-3.077
199700.000			-9.232			-3.077
199801.000			-9.231			-3.077
199900.000			-9.231			-3.077
200001.000			-9.230			-3.077
200102.000			-9.232			-3.077
200201.000			-9.232			-3.077
200300.000			-9.231			-3.077
200401.000			-9.231			-3.077
200500.000			-9.231			-3.077
200600.000			-9.230			-3.077
200701.000			-9.231			-3.077
200800.000			-9.231			-3.077
200901.000			-9.231			-3.077
201002.000			-9.232			-3.077
201101.000			-9.231			-3.077
201200.000			-9.230			-3.077
201301.000			-9.230			-3.077
201400.000			-9.231			-3.077
201500.000			-9.230			-3.077
201601.000			-9.231			-3.077
201700.000			-9.230			-3.077
201801.000			-9.229			-3.076
201902.000			-9.229			-3.076
202000.000			-9.229			-3.076
202100.000			-9.230			-3.077
202201.000			-9.230			-3.077
202300.000			-9.229			-3.076
202400.000			-9.229			-3.076
202501.000			-9.229			-3.076
202600.000			-9.229			-3.076
202702.000			-9.229			-3.076
202801.000			-9.229			-3.076
202900.000			-9.229			-3.076
203001.000			-9.229			-3.076
203100.000			-9.228			-3.076
203200.000			-9.229			-3.076
203301.000			-9.229			-3.076
203400.000			-9.229			-3.076
203500.000			-9.230			-3.077
203602.000			-9.228			-3.076
203701.000			-9.228			-3.076
203800.000			-9.228			-3.076
203901.000			-9.227			-3.076
204000.000			-9.227			-3.076
204100.000			-9.228			-3.076
204201.000			-9.228			-3.076
204300.000			-9.228			-3.076
204400.000			-9.228			-3.076
204502.000			-9.228			-3.076
204601.000			-9.228			-3.076
204700.000			-9.227			-3.076
204801.000			-9.227			-3.076
204900.000			-9.227			-3.076
205000.000			-9.228			-3.076
205101.000			-9.228			-3.076
205200.000			-9.227			-3.076
205300.000			-9.228			-3.076
205402.000			-9.228			-3.076
205501.000			-9.228			-3.076
205600.000			-9.228			-3.076
205701.000			-9.228			-3.076
205800.000			-9.227			-3.076
205900.000			-9.227			-3.076
206000.000			-9.227			-3.076
206100.000			-9.227			-3.076
206201.000			-9.227			-3.076
206301.000			-9.227			-3.076
206401.000			-9.226			-3.075
206501.000			-9.227			-3.076
206600.000			-9.227			-3.076
206700.000			-9.227			-3.076
206801.000			-9.226			-3.075
206900.000			-9.226			-3.075
207000.000			-9.226			-3.075
207101.000			-9.226			-3.075
207201.000			-9.226			-3.075
207301.000			-9.225			-3.075
207401.000			-9.224			-3.075
207500.000			-9.225			-3.075
207600.000			-9.225			-3.075
207701.000			-9.226			-3.075
207800.000			-9.226			-3.075
207900.000			-9.225			-3.075
208001.000			-9.226			-3.075
208101.000			-9.225			-3.075
208201.000			-9.225			-3.075
208301.000			-9.225			-3.075
208400.000			-9.225			-3.075
208500.000			-9.225			-3.075
208601.000			-9.224			-3.075
208700.000			-9.224			-3.075
208800.000			-9.224			-3.075
208901.000			-9.225			-3.075
209001.000			-9.225			-3.075
209102.000			-9.225			-3.075
209201.000			-9.226			-3.075
209300.000			-9.225			-3.075
209401.000			-9.224			-3.075
209500.000			-9.223			-3.074
209600.000			-9.224			-3.075
209701.000			-9.224			-3.075
209800.000			-9.224			-3.075
209901.000			-9.224			-3.075
210002.000			-9.224			-3.075
210101.000			-9.223			-3.074
210200.000			-9.223			-3.074
210301.000			-9.223			-3.074
210400.000			-9.222			-3.074
210500.000			-9.222			-3.074
210601.000			-9.223			-3.074
210700.000			-9.223			-3.074
210801.000			-9.223			-3.074
210902.000			-9.223			-3.074
211001.000			-9.222			-3.074
211100.000			-9.222			-3.074
211201.000			-9.223			-3.074
211300.000			-9.222			-3.074
211400.000			-9.223			-3.074
211501.000			-9.223			-3.074
211600.000			-9.222			-3.074
211701.000			-9.222			-3.074
211802.000			-9.222			-3.074
211900.000			-9.221			-3.074
212000.000			-9.222			-3.074
212101.000			-9.222			-3.074
212200.000			-9.221			-3.074
212300.000			-9.221			-3.074
212400.000			-9.222			-3.074
212500.000			-9.221			-3.074
212602.000			-9.222			-3.074
212701.000			-9.222			-3.074
212800.000			-9.221			-3.074
212901.000			-9.221			-3.074
213000.000			-9.222			-3.074
213100.000			-9.221			-3.074
213201.000			-9.221			-3.074
213300.000			-9.223			-3.074
213401.000			-9.223			-3.074
213502.000			-9.221			-3.074
213601.000			-9.221			-3.074
213700.000			-9.220			-3.073
213801.000			-9.221			-3.074
213900.000			-9.221			-3.074
214000.000			-9.221			-3.074
214101.000			-9.221			-3.074
214200.000			-9.221			-3.074
214301.000			-9.221			-3.074
214402.000			-9.221			-3.074
214501.000			-9.221			-3.074
214600.000			-9.220			-3.073
214701.000			-9.220			-3.073
214800.000			-9.219			-3.073
214900.000			-9.219			-3.073
215001.000			-9.219			-3.073
215100.000			-9.221			-3.074
215201.000			-9.221			-3.074
215302.000			-9.220			-3.073
215400.000			-9.221			-3.074
215500.000			-9.220			-3.073
215600.000			-9.219			-3.073
215700.000			-9.219			-3.073
215801.000			-9.219			-3.073
215900.000			-9.219			-3.073
216000.000			-9.220			-3.073
216102.000			-9.220			-3.073
216201.000			-9.219			-3.073
216301.000			-9.219			-3.073
216401.000			-9.220			-3.073
216500.000			-9.219			-3.073
216600.000			-9.218			-3.073
216701.000			-9.218			-3.073
216800.000			-9.219			-3.073
216900.000			-9.219			-3.073
217001.000			-9.219			-3.073
217101.000			-9.218			-3.073
217201.000			-9.218			-3.073
217301.000			-9.218			-3.073
217400.000			-9.219			-3.073
217500.000			-9.218			-3.073
217601.000			-9.220			-3.073
217700.000			-9.218			-3.073
217800.000			-9.218			-3.073
217901.000			-9.217			-3.072
218001.000			-9.218			-3.073
218101.000			-9.218			-3.073
218201.000			-9.218			-3.073
218300.000			-9.218			-3.073
218400.000			-9.217			-3.072
218501.000			-9.217			-3.072
218600.000			-9.217			-3.072
218700.000			-9.216			-3.072
218800.000			-9.216			-3.072
218901.000			-9.218			-3.073
219002.000			-9.217			-3.072
219101.000			-9.216			-3.072
219200.000			-9.217			-3.072
219301.000			-9.217			-3.072
219400.000			-9.216			-3.072
219500.000			-9.216			-3.072
219601.000			-9.216			-3.072
219700.000			-9.217			-3.072
219801.000			-9.216			-3.072
219902.000			-9.217			-3.072
220001.000			-9.216			-3.072
220100.000			-9.216			-3.072
220201.000			-9.217			-3.072
220300.000			-9.217			-3.072
220400.000			-9.216			-3.072
220501.000			-9.215			-3.072
220600.000			-9.215			-3.072
220701.000			-9.216			-3.072
220802.000			-9.216			-3.072
220901.000			-9.215			-3.072
221000.000			-9.216			-3.072
221101.000			-9.215			-3.072
221200.000			-9.216			-3.072
221300.000			-9.215			-3.072
221401.000			-9.215			-3.072
221500.000			-9.215			-3.072
221601.000			-9.215			-3.072
221702.000			-9.215			-3.072
221801.000			-9.216			-3.072
221900.000			-9.216			-3.072
222000.000			-9.215			-3.072
222100.000			-9.215			-3.072
222201.000			-9.214			-3.071
222300.000			-9.214			-3.071
222400.000			-9.215			-3.072
222502.000			-9.215			-3.072
222601.000			-9.215			-3.072
222701.000			-9.213			-3.071
222801.000			-9.214			-3.071
222900.000			-9.215			-3.072
223000.000			-9.215			-3.072
223101.000			-9.213			-3.071
223200.000			-9.214			-3.071
223300.000			-9.214			-3.071
223401.000			-9.215			-3.072
223501.000			-9.214			-3.071
223601.000			-9.212			-3.071
223701.000			-9.213			-3.071
223800.000			-9.213			-3.071
223900.000			-9.213			-3.071
224001.000			-9.213			-3.071
224100.000			-9.213			-3.071
224200.000			-9.212			-3.071
224302.000			-9.214			-3.071
224401.000			-9.214			-3.071
224501.000			-9.213			-3.071
224601.000			-9.213			-3.071
224700.000			-9.213			-3.071
224800.000			-9.213			-3.071
224901.000			-9.212			-3.071
225000.000			-9.212			-3.071
225100.000			-9.213			-3.071
225202.000			-9.213			-3.071
225301.000			-9.212			-3.071
225402.000			-9.212			-3.071
225500.000			-9.214			-3.071
225600.000			-9.213			-3.071
225701.000			-9.213			-3.071
225800.000			-9.213			-3.071
225900.000			-9.212			-3.071
226001.000			-9.212			-3.071
226101.000			-9.212			-3.071
226201.000			-9.211			-3.070
226301.000			-9.211			-3.070
226400.000			-9.212			-3.071
226500.000			-9.212			-3.071
226601.000			-9.212			-3.071
226700.000			-9.211			-3.070
226800.000			-9.211			-3.070
226901.000			-9.211			-3.070
227001.000			-9.211			-3.070
227101.000			-9.211			-3.070
227201.000			-9.211			-3.070
227300.000			-9.211			-3.070
227400.000			-9.211			-3.070
227501.000			-9.211			-3.070
227600.000			-9.210			-3.070
227700.000			-9.211			-3.070
227801.000			-9.211			-3.070
227901.000			-9.211			-3.070
228001.000			-9.211			-3.070
228101.000			-9.211			-3.070
228200.000			-9.212			-3.071
228300.000			-9.211			-3.070
228400.000			-9.210			-3.070
228500.000			-9.210			-3.070
228601.000			-9.209			-3.070
228700.000			-9.209			-3.070
228801.000			-9.211			-3.070
228902.000			-9.210			-3.070
229001.000			-9.210			-3.070
229100.000			-9.211			-3.070
229201.000			-9.210			-3.070
229300.000			-9.210			-3.070
229400.000			-9.210			-3.070
229501.000			-9.209			-3.070
229600.000			-9.210			-3.070
229701.000			-9.210			-3.070
229802.000			-9.210			-3.070
229901.000			-9.210			-3.070
230000.000			-9.210			-3.070
230101.000			-9.209			-3.070
230200.000			-9.209			-3.070
230300.000			-9.209			-3.070
230401.000			-9.209			-3.070
230500.000			-9.208			-3.069
230600.000			-9.208			-3.069
230702.000			-9.209			-3.070
230801.000			-9.209			-3.070
230900.000			-9.210			-3.070
231001.000			-9.208			-3.069
231100.000			-9.208			-3.069
231200.000			-9.209			-3.070
231301.000			-9.210			-3.070
231400.000			-9.209			-3.070
231500.000			-9.209			-3.070
231602.000			-9.209			-3.070
231701.000			-9.209			-3.070
231801.000			-9.209			-3.070
231900.000			-9.208			-3.069
232000.000			-9.209			-3.070
232101.000			-9.209			-3.070
232200.000			-9.208			-3.069
232300.000			-9.207			-3.069
232401.000			-9.208			-3.069
232501.000			-9.207			-3.069
232601.000			-9.207			-3.069
232701.000			-9.208			-3.069
232800.000			-9.208			-3.069
232900.000			-9.207			-3.069
233001.000			-9.207			-3.069
233100.000			-9.207			-3.069
233200.000			-9.207			-3.069
233301.000			-9.208			-3.069
233401.000			-9.208			-3.069
233501.000			-9.206			-3.069
233601.000			-9.206			-3.069
233700.000			-9.207			-3.069
233800.000			-9.205			-3.068
233901.000			-9.206			-3.069
234000.000			-9.207			-3.069
234100.000			-9.207			-3.069
234201.000			-9.207			-3.069
234301.000			-9.208			-3.069
234401.000			-9.207			-3.069
234501.000			-9.207			-3.069
234600.000			-9.207			-3.069
234700.000			-9.206			-3.069
234800.000			-9.206			-3.069
234900.000			-9.206			-3.069
235001.000			-9.206			-3.069
235100.000			-9.206			-3.069
235201.000			-9.205			-3.068
235302.000			-9.206			-3.069
235400.000			-9.205			-3.068
235500.000			-9.205			-3.068
235601.000			-9.206			-3.069
235700.000			-9.207			-3.069
235800.000			-9.206			-3.069
235901.000			-9.205			-3.068
236000.000			-9.206			-3.069
236101.000			-9.206			-3.069
236202.000			-9.205			-3.068
236300.000			-9.205			-3.068
236400.000			-9.205			-3.068
236501.000			-9.206			-3.069
236600.000			-9.205			-3.068
236700.000			-9.204			-3.068
236801.000			-9.205			-3.068
236900.000			-9.205			-3.068
237001.000			-9.204			-3.068
237102.000			-9.204			-3.068
237201.000			-9.205			-3.068
237300.000			-9.205			-3.068
237401.000			-9.205			-3.068
237500.000			-9.204			-3.068
237600.000			-9.205			-3.068
237701.000			-9.205			-3.068
237800.000			-9.203			-3.068
237902.000			-9.203			-3.068
238001.000			-9.205			-3.068
238101.000			-9.205			-3.068
238201.000			-9.204			-3.068
238300.000			-9.204			-3.068
238400.000			-9.204			-3.068
238501.000			-9.204			-3.068
238600.000			-9.204			-3.068
238700.000			-9.204			-3.068
238802.000			-9.203			-3.068
238901.000			-9.203			-3.068
239001.000			-9.204			-3.068
239101.000			-9.204			-3.068
239200.000			-9.203			-3.068
239300.000			-9.202			-3.067
239401.000			-9.202			-3.067
239500.000			-9.203			-3.068
239600.000			-9.203			-3.068
239702.000			-9.204			-3.068
239801.000			-9.203			-3.068
239901.000			-9.203			-3.068
240001.000			-9.203			-3.068
240100.000			-9.203			-3.068
240200.000			-9.203			-3.068
240301.000			-9.202			-3.067
240400.000			-9.203			-3.068
240500.000			-9.202			-3.067
240602.000			-9.202			-3.067
240701.000			-9.202			-3.067
240800.000			-9.203			-3.068
240901.000			-9.203			-3.068
241000.000			-9.203			-3.068
241100.000			-9.201			-3.067
241200.000			-9.202			-3.067
241300.000			-9.202			-3.067
241401.000			-9.201			-3.067
241501.000			-9.201			-3.067
241601.000			-9.202			-3.067
241701.000			-9.202			-3.067
241800.000			-9.203			-3.068
241900.000			-9.202			-3.067
242001.000			-9.201			-3.067
242100.000			-9.201			-3.067
242200.000			-9.202			-3.067
242301.000			-9.201			-3.067
242401.000			-9.201			-3.067
242501.000			-9.202			-3.067
242601.000			-9.201			-3.067
242700.000			-9.200			-3.067
242800.000			-9.200			-3.067
242901.000			-9.201			-3.067
243000.000			-9.201			-3.067
243100.000			-9.200			-3.067
243201.000			-9.200			-3.067
243301.000			-9.201			-3.067
243401.000			-9.200			-3.067
243501.000			-9.200			-3.067
243600.000			-9.201			-3.067
243700.000			-9.201			-3.067
243801.000			-9.201			-3.067
243900.000			-9.200			-3.067
244000.000			-9.200			-3.067
244102.000			-9.201			-3.067
244201.000			-9.200			-3.067
244302.000			-9.199			-3.066
244400.000			-9.198			-3.066
244500.000			-9.199			-3.066
244601.000			-9.200			-3.067
244700.000			-9.200			-3.067
244800.000			-9.200			-3.067
244901.000			-9.199			-3.066
245000.000			-9.199			-3.066
245101.000			-9.200			-3.067
245202.000			-9.199			-3.066
245301.000			-9.199			-3.066
245400.000			-9.199			-3.066
245501.000			-9.200			-3.067
245600.000			-9.200			-3.067
245700.000			-9.199			-3.066
245801.000			-9.199			-3.066
245900.000			-9.199			-3.066
246000.000			-9.198			-3.066
246102.000			-9.198			-3.066
246201.000			-9.198			-3.066
246300.000			-9.198			-3.066
246401.000			-9.197			-3.066
246500.000			-9.198			-3.066
246600.000			-9.198			-3.066
246701.000			-9.198			-3.066
246800.000			-9.197			-3.066
246900.000			-9.197			-3.066
247002.000			-9.197			-3.066
247101.000			-9.197			-3.066
247201.000			-9.198			-3.066
247301.000			-9.198			-3.066
247400.000			-9.197			-3.066
247500.000			-9.197			-3.066
247600.000			-9.197			-3.066
247700.000			-9.198			-3.066
247801.000			-9.198			-3.066
247900.000			-9.198			-3.066
248001.000			-9.198			-3.066
248102.000			-9.198			-3.066
248201.000			-9.197			-3.066
248300.000			-9.198			-3.066
248401.000			-9.198			-3.066
248500.000			-9.197			-3.066
248600.000			-9.197			-3.066
248701.000			-9.197			-3.066
248800.000			-9.197			-3.066
248900.000			-9.196			-3.065
249002.000			-9.196			-3.065
249101.000			-9.196			-3.065
249200.000			-9.195			-3.065
249301.000			-9.197			-3.066
249400.000			-9.197			-3.066
249500.000			-9.197			-3.066
249601.000			-9.198			-3.066
249700.000			-9.196			-3.065
249800.000			-9.196			-3.065
249902.000			-9.198			-3.066
250001.000			-9.197			-3.066
250101.000			-9.196			-3.065
250201.000			-9.196			-3.065
250300.000			-9.196			-3.065
250400.000			-9.196			-3.065
250501.000			-9.197			-3.066
250600.000			-9.197			-3.066
250700.000			-9.197			-3.066
250800.000			-9.195			-3.065
250901.000			-9.196			-3.065
251002.000			-9.196			-3.065
251101.000			-9.195			-3.065
251200.000			-9.196			-3.065
251301.000			-9.196			-3.065
251400.000			-9.196			-3.065
251500.000			-9.195			-3.065
251601.000			-9.196			-3.065
251700.000			-9.196			-3.065
251801.000			-9.196			-3.065
251902.000			-9.195			-3.065
252001.000			-9.195			-3.065
252100.000			-9.196			-3.065
252201.000			-9.195			-3.065
252300.000			-9.195			-3.065
252400.000			-9.195			-3.065
252501.000			-9.194			-3.065
252600.000			-9.194			-3.065
252700.000			-9.194			-3.065
252802.000			-9.194			-3.065
252901.000			-9.194			-3.065
253000.000			-9.194			-3.065
253101.000			-9.195			-3.065
253200.000			-9.195			-3.065
253300.000			-9.195			-3.065
253401.000			-9.195			-3.065
253500.000			-9.195			-3.065
253600.000			-9.194			-3.065
253702.000			-9.194			-3.065
253801.000			-9.194			-3.065
253902.000			-9.194			-3.065
254000.000			-9.194			-3.065
254100.000			-9.194			-3.065
254201.000			-9.193			-3.064
254300.000			-9.194			-3.065
254400.000			-9.193			-3.064
254501.000			-9.193			-3.064
254600.000			-9.193			-3.064
254701.000			-9.194			-3.065
254802.000			-9.194			-3.065
254900.000			-9.194			-3.065
255000.000			-9.194			-3.065
255101.000			-9.193			-3.064
255200.000			-9.193			-3.064
255300.000			-9.194			-3.065
255401.000			-9.193			-3.064
255500.000			-9.192			-3.064
255601.000			-9.193			-3.064
255702.000			-9.193			-3.064
255801.000			-9.193			-3.064
255900.000			-9.193			-3.064
256001.000			-9.192			-3.064
256100.000			-9.192			-3.064
256200.000			-9.193			-3.064
256301.000			-9.193			-3.064
256400.000			-9.192			-3.064
256500.000			-9.192			-3.064
256602.000			-9.192			-3.064
256701.000			-9.193			-3.064
256800.000			-9.192			-3.064
256901.000			-9.192			-3.064
257000.000			-9.191			-3.064
257100.000			-9.191			-3.064
257200.000			-9.192			-3.064
257300.000			-9.191			-3.064
257401.000			-9.191			-3.064
257501.000			-9.191			-3.064
257601.000			-9.193			-3.064
257701.000			-9.192			-3.064
257800.000			-9.192			-3.064
257900.000			-9.190			-3.063
258001.000			-9.190			-3.063
258100.000			-9.191			-3.064
258200.000			-9.192			-3.064
258301.000			-9.192			-3.064
258401.000			-9.191			-3.064
258501.000			-9.191			-3.064
258602.000			-9.190			-3.063
258700.000			-9.190			-3.063
258800.000			-9.191			-3.064
258901.000			-9.191			-3.064
259000.000			-9.191			-3.064
259100.000			-9.191			-3.064
259201.000			-9.191			-3.064
259300.000			-9.191			-3.064
259401.000			-9.191			-3.064
259502.000			-9.192			-3.064
259601.000			-9.191			-3.064
259700.000			-9.190			-3.063
259801.000			-9.190			-3.063
259900.000			-9.189			-3.063
260000.000			-9.189			-3.063
260101.000			-9.191			-3.064
260200.000			-9.189			-3.063
260300.000			-9.190			-3.063
260402.000			-9.191			-3.064
260501.000			-9.190			-3.063
260601.000			-9.190			-3.063
260700.000			-9.189			-3.063
260800.000			-9.189			-3.063
260901.000			-9.189			-3.063
261000.000			-9.190			-3.063
261100.000			-9.191			-3.064
261201.000			-9.190			-3.063
261301.000			-9.189			-3.063
261401.000			-9.189			-3.063
261501.000			-9.189			-3.063
261600.000			-9.189			-3.063
261700.000			-9.190			-3.063
261801.000			-9.190			-3.063
261900.000			-9.190			-3.063
262000.000			-9.188			-3.063
262101.000			-9.189			-3.063
262201.000			-9.190			-3.063
262301.000			-9.189			-3.063
262402.000			-9.189			-3.063
262500.000			-9.189			-3.063
262600.000			-9.188			-3.063
262701.000			-9.188			-3.063
262800.000			-9.188			-3.063
262900.000			-9.189			-3.063
263001.000			-9.189			-3.063
263100.000			-9.188			-3.063
263201.000			-9.189			-3.063
263302.000			-9.189			-3.063
263401.000			-9.189			-3.063
263500.000			-9.189			-3.063
263600.000			-9.189			-3.063
263700.000			-9.189			-3.063
263801.000			-9.189			-3.063
263900.000			-9.188			-3.063
264000.000			-9.189			-3.063
264101.000			-9.188			-3.063
264201.000			-9.188			-3.063
264301.000			-9.188			-3.063
264401.000			-9.187			-3.062
264500.000			-9.187			-3.062
264600.000			-9.187			-3.062
264701.000			-9.187			-3.062
264800.000			-9.187			-3.062
264900.000			-9.188			-3.063
265001.000			-9.188			-3.063
265101.000			-9.188			-3.063
265201.000			-9.188			-3.063
265302.000			-9.187			-3.062
265400.000			-9.187			-3.062
265500.000			-9.187			-3.062
265601.000			-9.188			-3.063
265700.000			-9.188			-3.063
265800.000			-9.187			-3.062
265901.000			-9.187			-3.062
266000.000			-9.187			-3.062
266101.000			-9.187			-3.062
266202.000			-9.187			-3.062
266300.000			-9.187			-3.062
266400.000			-9.186			-3.062
266501.000			-9.186			-3.062
266600.000			-9.187			-3.062
266700.000			-9.187			-3.062
266800.000			-9.187			-3.062
266900.000			-9.186			-3.062
267001.000			-9.185			-3.062
267101.000			-9.185			-3.062
267201.000			-9.186			-3.062
267301.000			-9.186			-3.062
267400.000			-9.186			-3.062
267500.000			-9.186			-3.062
267601.000			-9.185			-3.062
267700.000			-9.185			-3.062
267800.000			-9.186			-3.062
267901.000			-9.185			-3.062
268001.000			-9.185			-3.062
268101.000			-9.185			-3.062
268202.000			-9.185			-3.062
268300.000			-9.185			-3.062
268400.000			-9.184			-3.061
268501.000			-9.185			-3.062
268600.000			-9.185			-3.062
268700.000			-9.184			-3.061
268801.000			-9.185			-3.062
268900.000			-9.186			-3.062
269001.000			-9.185			-3.062
269102.000			-9.184			-3.061
269201.000			-9.184			-3.061
269300.000			-9.185			-3.062
269401.000			-9.184			-3.061
269500.000			-9.184			-3.061
269600.000			-9.185			-3.062
269701.000			-9.184			-3.061
269800.000			-9.184			-3.061
269900.000			-9.184			-3.061
270002.000			-9.184			-3.061
270101.000			-9.185			-3.062
270201.000			-9.184			-3.061
270300.000			-9.184			-3.061
270400.000			-9.185			-3.062
270501.000			-9.183			-3.061
270600.000			-9.184			-3.061
270700.000			-9.183			-3.061
270801.000			-9.183			-3.061
270901.000			-9.184			-3.061
271001.000			-9.184			-3.061
271101.000			-9.184			-3.061
271200.000			-9.183			-3.061
271300.000			-9.182			-3.061
271401.000			-9.183			-3.061
271500.000			-9.184			-3.061
271600.000			-9.182			-3.061
271701.000			-9.182			-3.061
271801.000			-9.183			-3.061
271901.000			-9.183			-3.061
272001.000			-9.184			-3.061
272100.000			-9.183			-3.061
272200.000			-9.182			-3.061
272301.000			-9.182			-3.061
272400.000			-9.182			-3.061
272500.000			-9.183			-3.061
272601.000			-9.182			-3.061
272701.000			-9.182			-3.061
272801.000			-9.183			-3.061
272901.000			-9.182			-3.061
273000.000			-9.183			-3.061
273100.000			-9.183			-3.061
273200.000			-9.183			-3.061
273300.000			-9.181			-3.060
273401.000			-9.181			-3.060
273500.000			-9.182			-3.061
273601.000			-9.182			-3.061
273702.000			-9.182			-3.061
273801.000			-9.181			-3.060
273900.000			-9.181			-3.060
274001.000			-9.181			-3.060
274100.000			-9.180			-3.060
274200.000			-9.182			-3.061
274301.000			-9.182			-3.061
274400.000			-9.181			-3.060
274500.000			-9.181			-3.060
274602.000			-9.181			-3.060
274701.000			-9.181			-3.060
274800.000			-9.181			-3.060
274901.000			-9.181			-3.060
275000.000			-9.181			-3.060
275100.000			-9.181			-3.060
275201.000			-9.181			-3.060
275300.000			-9.181			-3.060
275400.000			-9.181			-3.060
275502.000			-9.181			-3.060
275601.000			-9.181			-3.060
275700.000			-9.180			-3.060
275801.000			-9.181			-3.060
275900.000			-9.181			-3.060
276000.000			-9.180			-3.060
276101.000			-9.180			-3.060
276200.000			-9.180			-3.060
276300.000			-9.179			-3.060
276402.000			-9.181			-3.060
276501.000			-9.181			-3.060
276602.000			-9.180			-3.060
276700.000			-9.180			-3.060
276800.000			-9.181			-3.060
276901.000			-9.179			-3.060
277000.000			-9.179			-3.060
277100.000			-9.180			-3.060
277201.000			-9.180			-3.060
277300.000			-9.180			-3.060
277401.000			-9.179			-3.060
277502.000			-9.180			-3.060
277601.000			-9.179			-3.060
277700.000			-9.179			-3.060
277801.000			-9.179			-3.060
277900.000			-9.180			-3.060
278000.000			-9.180			-3.060
278101.000			-9.179			-3.060
278200.000			-9.179			-3.060
278300.000			-9.179			-3.060
278402.000			-9.179			-3.060
278501.000			-9.179			-3.060
278600.000			-9.179			-3.060
278701.000			-9.180			-3.060
278800.000			-9.180			-3.060
278900.000			-9.179			-3.060
279001.000			-9.179			-3.060
279100.000			-9.180			-3.060
279200.000			-9.179			-3.060
279302.000			-9.178			-3.059
279401.000			-9.178			-3.059
279502.000			-9.179			-3.060
279600.000			-9.179			-3.060
279700.000			-9.178			-3.059
279801.000			-9.178			-3.059
279900.000			-9.178			-3.059
280000.000			-9.179			-3.060
280101.000			-9.178			-3.059
280200.000			-9.178			-3.059
280301.000			-9.178			-3.059
280402.000			-9.177			-3.059
280501.000			-9.177			-3.059
280600.000			-9.177			-3.059
280701.000			-9.177			-3.059
280800.000			-9.177			-3.059
280900.000			-9.178			-3.059
281001.000			-9.178			-3.059
281100.000			-9.178			-3.059
281200.000			-9.177			-3.059
281302.000			-9.177			-3.059
281401.000			-9.178			-3.059
281500.000			-9.178			-3.059
281601.000			-9.178			-3.059
281700.000			-9.178			-3.059
281800.000			-9.177			-3.059
281901.000			-9.178			-3.059
282000.000			-9.177			-3.059
282100.000			-9.177			-3.059
282202.000			-9.177			-3.059
282301.000			-9.178			-3.059
282401.000			-9.176			-3.059
282501.000			-9.176			-3.059
282600.000			-9.178			-3.059
282700.000			-9.177			-3.059
282800.000			-9.177			-3.059
282900.000			-9.177			-3.059
283001.000			-9.176			-3.059
283100.000			-9.176			-3.059
283201.000			-9.176			-3.059
283302.000			-9.176			-3.059
283400.000			-9.177			-3.059
283500.000			-9.177			-3.059
283601.000			-9.177			-3.059
283700.000			-9.176			-3.059
283800.000			-9.177			-3.059
283901.000			-9.176			-3.059
284000.000			-9.175			-3.058
284101.000			-9.176			-3.059
284202.000			-9.175			-3.058
284301.000			-9.175			-3.058
284400.000			-9.175			-3.058
284501.000			-9.175			-3.058
284600.000			-9.176			-3.059
284700.000			-9.176			-3.059
284801.000			-9.175			-3.058
284900.000			-9.176			-3.059
285000.000			-9.177			-3.059
285102.000			-9.176			-3.059
285201.000			-9.174			-3.058
285300.000			-9.175			-3.058
285401.000			-9.175			-3.058
285500.000			-9.175			-3.058
285600.000			-9.176			-3.059
285701.000			-9.175			-3.058
285800.000			-9.175			-3.058
285900.000			-9.175			-3.058
286002.000			-9.175			-3.058
286101.000			-9.175			-3.058
286202.000			-9.175			-3.058
286300.000			-9.175			-3.058
286400.000			-9.174			-3.058
286501.000			-9.174			-3.058
286600.000			-9.174			-3.058
286700.000			-9.174			-3.058
286801.000			-9.173			-3.058
286900.000			-9.174			-3.058
287001.000			-9.173			-3.058
287102.000			-9.173			-3.058
287200.000			-9.174			-3.058
287300.000			-9.173			-3.058
287401.000			-9.174			-3.058
287500.000			-9.174			-3.058
287600.000			-9.174			-3.058
287701.000			-9.175			-3.058
287800.000			-9.175			-3.058
287901.000			-9.174			-3.058
288002.000			-9.173			-3.058
288101.000			-9.173			-3.058
288200.000			-9.172			-3.057
288301.000			-9.172			-3.057
288400.000			-9.172			-3.057
288500.000			-9.173			-3.058
288601.000			-9.173			-3.058
288700.000			-9.173			-3.058
288800.000			-9.173			-3.058
288902.000			-9.171			-3.057
289001.000			-9.172			-3.057
289100.000			-9.172			-3.057
289200.000			-9.173			-3.058
289300.000			-9.173			-3.058
289401.000			-9.172			-3.057
289500.000			-9.172			-3.057
289600.000			-9.172			-3.057
289701.000			-9.172			-3.057
289801.000			-9.172			-3.057
289901.000			-9.173			-3.058
290002.000			-9.173			-3.058
290100.000			-9.172			-3.057
290200.000			-9.172			-3.057
290301.000			-9.171			-3.057
290400.000			-9.171			-3.057
290500.000			-9.170			-3.057
290601.000			-9.171			-3.057
290700.000			-9.172			-3.057
290801.000			-9.172			-3.057
290902.000			-9.171			-3.057
291000.000			-9.171			-3.057
291100.000			-9.172			-3.057
291201.000			-9.171			-3.057
291300.000			-9.171			-3.057
291400.000			-9.171			-3.057
291501.000			-9.171			-3.057
291600.000			-9.172			-3.057
291701.000			-9.171			-3.057
291802.000			-9.172			-3.057
291900.000			-9.172			-3.057
292000.000			-9.170			-3.057
292101.000			-9.171			-3.057
292200.000			-9.172			-3.057
292300.000			-9.172			-3.057
292400.000			-9.171			-3.057
292500.000			-9.171			-3.057
292602.000			-9.170			-3.057
292701.000			-9.171			-3.057
292801.000			-9.171			-3.057
292901.000			-9.171			-3.057
293000.000			-9.171			-3.057
293100.000			-9.171			-3.057
293201.000			-9.171			-3.057
293300.000			-9.170			-3.057
293400.000			-9.170			-3.057
293502.000			-9.170			-3.057
293601.000			-9.170			-3.057
293701.000			-9.170			-3.057
293801.000			-9.169			-3.056
293900.000			-9.169			-3.056
294000.000			-9.169			-3.056
294101.000			-9.170			-3.057
294200.000			-9.170			-3.057
294300.000			-9.169			-3.056
294401.000			-9.168			-3.056
294501.000			-9.169			-3.056
294601.000			-9.169			-3.056
294701.000			-9.169			-3.056
294800.000			-9.170			-3.057
294900.000			-9.170			-3.057
295001.000			-9.170			-3.057
295100.000			-9.169			-3.056
295200.000			-9.169			-3.056
295301.000			-9.170			-3.057
295401.000			-9.169			-3.056
295502.000			-9.168			-3.056
295601.000			-9.169			-3.056
295700.000			-9.168			-3.056
295801.000			-9.169			-3.056
295900.000			-9.170			-3.057
296000.000			-9.169			-3.056
296101.000			-9.169			-3.056
296200.000			-9.168			-3.056
296300.000			-9.168			-3.056
296402.000			-9.168			-3.056
296501.000			-9.168			-3.056
296601.000			-9.167			-3.056
296701.000			-9.167			-3.056
296800.000			-9.168			-3.056
296900.000			-9.169			-3.056
297001.000			-9.168			-3.056
297100.000			-9.168			-3.056
297200.000			-9.168			-3.056
297301.000			-9.168			-3.056
297401.000			-9.168			-3.056
297501.000			-9.168			-3.056
297601.000			-9.168			-3.056
297700.000			-9.169			-3.056
297800.000			-9.168			-3.056
297901.000			-9.168			-3.056
298000.000			-9.168			-3.056
298100.000			-9.167			-3.056
298201.000			-9.167			-3.056
298301.000			-9.167			-3.056
298401.000			-9.167			-3.056
298502.000			-9.169			-3.056
298600.000			-9.168			-3.056
298700.000			-9.168			-3.056
298800.000			-9.167			-3.056
298900.000			-9.167			-3.056
299001.000			-9.167			-3.056
299100.000			-9.167			-3.056
299200.000			-9.168			-3.056
299302.000			-9.167			-3.056
299401.000			-9.166			-3.055
299501.000			-9.167			-3.056
299601.000			-9.166			-3.055
299700.000			-9.166			-3.055
299800.000			-9.166			-3.055
299901.000			-9.167			-3.056
