# Acquired on 09/01/2024 13:40:16 
# SPIDER: Creep_8mm_07714532B-1
# CREEP MEASUREMENT

# time [ms]		force [N]		stiffness [N/mm]
0.000			-38.069			-4.759
100.000			-40.095			-5.012
201.000			-40.914			-5.114
301.000			-40.899			-5.112
400.000			-40.448			-5.056
500.000			-40.285			-5.036
601.000			-40.146			-5.018
700.000			-40.025			-5.003
800.000			-39.918			-4.990
902.000			-39.822			-4.978
1001.000			-39.735			-4.967
1100.000			-39.582			-4.948
1201.000			-39.514			-4.939
1300.000			-39.451			-4.931
1400.000			-39.392			-4.924
1500.000			-39.336			-4.917
1601.000			-39.283			-4.910
1702.000			-39.234			-4.904
1800.000			-39.142			-4.893
1900.000			-39.098			-4.887
2001.000			-39.057			-4.882
2100.000			-39.018			-4.877
2200.000			-38.981			-4.873
2301.000			-38.944			-4.868
2401.000			-38.909			-4.864
2501.000			-38.843			-4.855
2601.000			-38.813			-4.852
2700.000			-38.784			-4.848
2800.000			-38.755			-4.844
2901.000			-38.725			-4.841
3000.000			-38.697			-4.837
3100.000			-38.670			-4.834
3202.000			-38.645			-4.831
3301.000			-38.596			-4.824
3400.000			-38.571			-4.821
3501.000			-38.548			-4.818
3600.000			-38.525			-4.816
3700.000			-38.504			-4.813
3801.000			-38.481			-4.810
3900.000			-38.459			-4.807
4001.000			-38.419			-4.802
4102.000			-38.400			-4.800
4200.000			-38.381			-4.798
4300.000			-38.362			-4.795
4401.000			-38.344			-4.793
4500.000			-38.326			-4.791
4600.000			-38.308			-4.789
4702.000			-38.274			-4.784
4801.000			-38.257			-4.782
4901.000			-38.241			-4.780
5000.000			-38.223			-4.778
5100.000			-38.208			-4.776
5201.000			-38.193			-4.774
5300.000			-38.178			-4.772
5400.000			-38.163			-4.770
5502.000			-38.133			-4.767
5601.000			-38.119			-4.765
5700.000			-38.104			-4.763
5801.000			-38.091			-4.761
5900.000			-38.077			-4.760
6000.000			-38.062			-4.758
6101.000			-38.050			-4.756
6200.000			-38.024			-4.753
6301.000			-38.012			-4.751
6402.000			-37.999			-4.750
6500.000			-37.986			-4.748
6600.000			-37.973			-4.747
6701.000			-37.962			-4.745
6800.000			-37.951			-4.744
6900.000			-37.927			-4.741
7002.000			-37.915			-4.739
7101.000			-37.904			-4.738
7200.000			-37.893			-4.737
7301.000			-37.882			-4.735
7400.000			-37.872			-4.734
7500.000			-37.861			-4.733
7601.000			-37.839			-4.730
7700.000			-37.828			-4.729
7802.000			-37.819			-4.727
7901.000			-37.809			-4.726
8000.000			-37.799			-4.725
8101.000			-37.789			-4.724
8200.000			-37.779			-4.722
8300.000			-37.759			-4.720
8401.000			-37.750			-4.719
8500.000			-37.740			-4.718
8601.000			-37.731			-4.716
8702.000			-37.721			-4.715
8800.000			-37.712			-4.714
8900.000			-37.703			-4.713
9001.000			-37.695			-4.712
9100.000			-37.676			-4.710
9200.000			-37.667			-4.708
9301.000			-37.661			-4.708
9401.000			-37.653			-4.707
9501.000			-37.644			-4.705
9601.000			-37.636			-4.704
9700.000			-37.628			-4.703
9800.000			-37.613			-4.702
9901.000			-37.604			-4.700
10000.000			-37.595			-4.699
10100.000			-37.587			-4.698
10202.000			-37.580			-4.697
10301.000			-37.573			-4.697
10400.000			-37.565			-4.696
10501.000			-37.549			-4.694
10600.000			-37.540			-4.693
10700.000			-37.533			-4.692
10801.000			-37.527			-4.691
10900.000			-37.521			-4.690
11002.000			-37.512			-4.689
11101.000			-37.504			-4.688
11200.000			-37.490			-4.686
11301.000			-37.484			-4.685
11400.000			-37.478			-4.685
11500.000			-37.470			-4.684
11601.000			-37.464			-4.683
11700.000			-37.455			-4.682
11801.000			-37.449			-4.681
11902.000			-37.436			-4.680
12000.000			-37.429			-4.679
12100.000			-37.423			-4.678
12201.000			-37.417			-4.677
12300.000			-37.410			-4.676
12400.000			-37.403			-4.675
12501.000			-37.397			-4.675
12601.000			-37.392			-4.674
12701.000			-37.380			-4.672
12801.000			-37.373			-4.672
12900.000			-37.367			-4.671
13000.000			-37.360			-4.670
13101.000			-37.355			-4.669
13200.000			-37.348			-4.669
13300.000			-37.342			-4.668
13402.000			-37.331			-4.666
13501.000			-37.325			-4.666
13600.000			-37.320			-4.665
13701.000			-37.314			-4.664
13800.000			-37.308			-4.663
13900.000			-37.302			-4.663
14001.000			-37.297			-4.662
14100.000			-37.286			-4.661
14202.000			-37.281			-4.660
14301.000			-37.276			-4.659
14400.000			-37.269			-4.659
14501.000			-37.264			-4.658
14600.000			-37.259			-4.657
14700.000			-37.253			-4.657
14801.000			-37.248			-4.656
14900.000			-37.238			-4.655
15001.000			-37.232			-4.654
15102.000			-37.226			-4.653
15200.000			-37.221			-4.653
15300.000			-37.217			-4.652
15401.000			-37.211			-4.651
15500.000			-37.205			-4.651
15600.000			-37.196			-4.650
15702.000			-37.190			-4.649
15801.000			-37.185			-4.648
15901.000			-37.181			-4.648
16001.000			-37.177			-4.647
16100.000			-37.171			-4.646
16200.000			-37.166			-4.646
16301.000			-37.156			-4.644
16400.000			-37.151			-4.644
16500.000			-37.147			-4.643
16602.000			-37.142			-4.643
16701.000			-37.137			-4.642
16800.000			-37.133			-4.642
16901.000			-37.128			-4.641
17000.000			-37.119			-4.640
17100.000			-37.113			-4.639
17201.000			-37.109			-4.639
17301.000			-37.105			-4.638
17402.000			-37.102			-4.638
17501.000			-37.097			-4.637
17600.000			-37.091			-4.636
17701.000			-37.082			-4.635
17800.000			-37.078			-4.635
17900.000			-37.074			-4.634
18001.000			-37.069			-4.634
18100.000			-37.064			-4.633
18201.000			-37.059			-4.632
18302.000			-37.055			-4.632
18400.000			-37.052			-4.632
18500.000			-37.042			-4.630
18601.000			-37.040			-4.630
18700.000			-37.036			-4.629
18800.000			-37.032			-4.629
18902.000			-37.028			-4.628
19001.000			-37.023			-4.628
19101.000			-37.019			-4.627
19201.000			-37.011			-4.626
19300.000			-37.006			-4.626
19400.000			-37.003			-4.625
19501.000			-36.998			-4.625
19600.000			-36.994			-4.624
19700.000			-36.991			-4.624
19802.000			-36.987			-4.623
19901.000			-36.978			-4.622
20000.000			-36.975			-4.622
20101.000			-36.971			-4.621
20200.000			-36.968			-4.621
20300.000			-36.963			-4.620
20401.000			-36.959			-4.620
20500.000			-36.955			-4.619
20602.000			-36.948			-4.618
20701.000			-36.944			-4.618
20800.000			-36.941			-4.618
20901.000			-36.937			-4.617
21000.000			-36.933			-4.617
21100.000			-36.929			-4.616
21201.000			-36.925			-4.616
21300.000			-36.922			-4.615
21401.000			-36.916			-4.615
21502.000			-36.913			-4.614
21600.000			-36.908			-4.614
21700.000			-36.903			-4.613
21801.000			-36.900			-4.613
21900.000			-36.897			-4.612
22000.000			-36.894			-4.612
22101.000			-36.888			-4.611
22201.000			-36.883			-4.610
22301.000			-36.880			-4.610
22401.000			-36.877			-4.610
22500.000			-36.874			-4.609
22600.000			-36.871			-4.609
22701.000			-36.867			-4.608
22800.000			-36.860			-4.608
22900.000			-36.856			-4.607
23002.000			-36.852			-4.607
23101.000			-36.850			-4.606
23200.000			-36.846			-4.606
23301.000			-36.842			-4.605
23400.000			-36.838			-4.605
23500.000			-36.832			-4.604
23601.000			-36.829			-4.604
23700.000			-36.825			-4.603
23802.000			-36.822			-4.603
23901.000			-36.819			-4.602
24000.000			-36.817			-4.602
24101.000			-36.813			-4.602
24200.000			-36.809			-4.601
24300.000			-36.803			-4.600
24401.000			-36.801			-4.600
24500.000			-36.798			-4.600
24601.000			-36.795			-4.599
24702.000			-36.791			-4.599
24800.000			-36.787			-4.598
24900.000			-36.783			-4.598
25001.000			-36.777			-4.597
25100.000			-36.774			-4.597
25200.000			-36.770			-4.596
25301.000			-36.768			-4.596
25401.000			-36.765			-4.596
25501.000			-36.763			-4.595
25601.000			-36.760			-4.595
25700.000			-36.753			-4.594
25800.000			-36.750			-4.594
25901.000			-36.746			-4.593
26000.000			-36.745			-4.593
26100.000			-36.742			-4.593
26202.000			-36.739			-4.592
26301.000			-36.736			-4.592
26400.000			-36.730			-4.591
26501.000			-36.728			-4.591
26600.000			-36.724			-4.590
26700.000			-36.720			-4.590
26801.000			-36.717			-4.590
26900.000			-36.714			-4.589
27002.000			-36.711			-4.589
27101.000			-36.709			-4.589
27200.000			-36.703			-4.588
27301.000			-36.700			-4.587
27400.000			-36.697			-4.587
27500.000			-36.694			-4.587
27601.000			-36.692			-4.586
27700.000			-36.689			-4.586
27800.000			-36.687			-4.586
27902.000			-36.682			-4.585
28001.000			-36.679			-4.585
28100.000			-36.676			-4.585
28201.000			-36.672			-4.584
28300.000			-36.669			-4.584
28400.000			-36.668			-4.583
28501.000			-36.665			-4.583
28600.000			-36.659			-4.582
28701.000			-36.656			-4.582
28802.000			-36.654			-4.582
28900.000			-36.651			-4.581
29000.000			-36.648			-4.581
29101.000			-36.643			-4.580
29200.000			-36.641			-4.580
29300.000			-36.637			-4.580
29401.000			-36.635			-4.579
29501.000			-36.632			-4.579
29601.000			-36.628			-4.579
29701.000			-36.627			-4.578
29800.000			-36.625			-4.578
29900.000			-36.622			-4.578
30001.000			-36.619			-4.577
30100.000			-36.614			-4.577
30200.000			-36.611			-4.576
30302.000			-36.608			-4.576
30401.000			-36.606			-4.576
30501.000			-36.603			-4.575
30600.000			-36.601			-4.575
30700.000			-36.599			-4.575
30801.000			-36.592			-4.574
30900.000			-36.590			-4.574
31000.000			-36.588			-4.573
31102.000			-36.585			-4.573
31201.000			-36.583			-4.573
31300.000			-36.581			-4.573
31401.000			-36.578			-4.572
31500.000			-36.574			-4.572
31600.000			-36.571			-4.571
31701.000			-36.568			-4.571
31800.000			-36.566			-4.571
31901.000			-36.564			-4.570
32002.000			-36.561			-4.570
32100.000			-36.559			-4.570
32200.000			-36.554			-4.569
32301.000			-36.551			-4.569
32400.000			-36.549			-4.569
32500.000			-36.547			-4.568
32601.000			-36.543			-4.568
32701.000			-36.542			-4.568
32801.000			-36.540			-4.568
32901.000			-36.537			-4.567
33000.000			-36.533			-4.567
33100.000			-36.530			-4.566
33201.000			-36.527			-4.566
33300.000			-36.525			-4.566
33400.000			-36.523			-4.565
33502.000			-36.521			-4.565
33601.000			-36.519			-4.565
33701.000			-36.514			-4.564
33800.000			-36.512			-4.564
33900.000			-36.509			-4.564
34001.000			-36.507			-4.563
34100.000			-36.505			-4.563
34200.000			-36.502			-4.563
34302.000			-36.500			-4.562
34401.000			-36.495			-4.562
34500.000			-36.493			-4.562
34601.000			-36.490			-4.561
34700.000			-36.488			-4.561
34800.000			-36.486			-4.561
34901.000			-36.484			-4.560
35000.000			-36.482			-4.560
35101.000			-36.476			-4.560
35202.000			-36.474			-4.559
35300.000			-36.472			-4.559
35400.000			-36.470			-4.559
35501.000			-36.468			-4.558
35600.000			-36.466			-4.558
35700.000			-36.464			-4.558
35801.000			-36.459			-4.557
35900.000			-36.456			-4.557
36001.000			-36.454			-4.557
36102.000			-36.453			-4.557
36200.000			-36.452			-4.557
36300.000			-36.450			-4.556
36401.000			-36.447			-4.556
36500.000			-36.444			-4.556
36600.000			-36.439			-4.555
36700.000			-36.437			-4.555
36801.000			-36.435			-4.554
36902.000			-36.433			-4.554
37000.000			-36.432			-4.554
37100.000			-36.429			-4.554
37201.000			-36.428			-4.553
37300.000			-36.424			-4.553
37400.000			-36.421			-4.553
37501.000			-36.419			-4.552
37601.000			-36.418			-4.552
37701.000			-36.415			-4.552
37801.000			-36.412			-4.552
37900.000			-36.410			-4.551
38000.000			-36.406			-4.551
38101.000			-36.405			-4.551
38200.000			-36.403			-4.550
38300.000			-36.400			-4.550
38402.000			-36.399			-4.550
38501.000			-36.397			-4.550
38600.000			-36.394			-4.549
38701.000			-36.392			-4.549
38800.000			-36.389			-4.549
38900.000			-36.387			-4.548
39001.000			-36.384			-4.548
39100.000			-36.383			-4.548
39201.000			-36.381			-4.548
39302.000			-36.378			-4.547
39400.000			-36.377			-4.547
39500.000			-36.374			-4.547
39601.000			-36.371			-4.546
39700.000			-36.369			-4.546
39800.000			-36.367			-4.546
39900.000			-36.366			-4.546
40001.000			-36.364			-4.545
40102.000			-36.361			-4.545
40200.000			-36.357			-4.545
40300.000			-36.355			-4.544
40401.000			-36.354			-4.544
40500.000			-36.351			-4.544
40600.000			-36.349			-4.544
40701.000			-36.348			-4.543
40801.000			-36.345			-4.543
40901.000			-36.343			-4.543
41001.000			-36.340			-4.542
41100.000			-36.338			-4.542
41200.000			-36.338			-4.542
41301.000			-36.335			-4.542
41400.000			-36.333			-4.542
41500.000			-36.331			-4.541
41602.000			-36.328			-4.541
41701.000			-36.326			-4.541
41800.000			-36.323			-4.540
41901.000			-36.320			-4.540
42000.000			-36.318			-4.540
42100.000			-36.317			-4.540
42201.000			-36.316			-4.540
42301.000			-36.314			-4.539
42401.000			-36.311			-4.539
42501.000			-36.310			-4.539
42600.000			-36.308			-4.539
42700.000			-36.306			-4.538
42801.000			-36.304			-4.538
42900.000			-36.302			-4.538
43000.000			-36.301			-4.538
43102.000			-36.297			-4.537
43201.000			-36.295			-4.537
43301.000			-36.292			-4.537
43400.000			-36.290			-4.536
43500.000			-36.289			-4.536
43601.000			-36.287			-4.536
43700.000			-36.286			-4.536
43800.000			-36.282			-4.535
43902.000			-36.280			-4.535
44001.000			-36.279			-4.535
44101.000			-36.277			-4.535
44201.000			-36.276			-4.534
44300.000			-36.273			-4.534
44400.000			-36.271			-4.534
44501.000			-36.269			-4.534
44600.000			-36.267			-4.533
44701.000			-36.265			-4.533
44802.000			-36.263			-4.533
44901.000			-36.262			-4.533
45000.000			-36.260			-4.532
45101.000			-36.258			-4.532
45200.000			-36.256			-4.532
45300.000			-36.252			-4.531
45401.000			-36.250			-4.531
45501.000			-36.249			-4.531
45601.000			-36.248			-4.531
45702.000			-36.247			-4.531
45800.000			-36.244			-4.531
45900.000			-36.242			-4.530
46001.000			-36.239			-4.530
46100.000			-36.239			-4.530
46200.000			-36.237			-4.530
46302.000			-36.235			-4.529
46401.000			-36.233			-4.529
46502.000			-36.230			-4.529
46600.000			-36.229			-4.529
46700.000			-36.225			-4.528
46801.000			-36.224			-4.528
46900.000			-36.223			-4.528
47000.000			-36.221			-4.528
47102.000			-36.220			-4.528
47201.000			-36.218			-4.527
47301.000			-36.215			-4.527
47401.000			-36.213			-4.527
47500.000			-36.211			-4.526
47600.000			-36.210			-4.526
47701.000			-36.208			-4.526
47800.000			-36.207			-4.526
47900.000			-36.205			-4.526
48002.000			-36.203			-4.525
48101.000			-36.201			-4.525
48200.000			-36.198			-4.525
48301.000			-36.195			-4.524
48400.000			-36.194			-4.524
48500.000			-36.194			-4.524
48601.000			-36.192			-4.524
48700.000			-36.190			-4.524
48801.000			-36.189			-4.524
48902.000			-36.185			-4.523
49000.000			-36.183			-4.523
49100.000			-36.183			-4.523
49201.000			-36.181			-4.523
49300.000			-36.179			-4.522
49400.000			-36.178			-4.522
49500.000			-36.176			-4.522
49601.000			-36.174			-4.522
49702.000			-36.172			-4.522
49800.000			-36.170			-4.521
49900.000			-36.168			-4.521
50001.000			-36.167			-4.521
50100.000			-36.165			-4.521
50200.000			-36.163			-4.520
50301.000			-36.161			-4.520
50401.000			-36.159			-4.520
50501.000			-36.158			-4.520
50601.000			-36.156			-4.520
50700.000			-36.155			-4.519
50800.000			-36.153			-4.519
50901.000			-36.151			-4.519
51000.000			-36.149			-4.519
51100.000			-36.146			-4.518
51202.000			-36.145			-4.518
51301.000			-36.144			-4.518
51400.000			-36.142			-4.518
51501.000			-36.140			-4.518
51600.000			-36.139			-4.517
51700.000			-36.139			-4.517
51801.000			-36.135			-4.517
51901.000			-36.133			-4.517
52001.000			-36.131			-4.516
52101.000			-36.131			-4.516
52200.000			-36.130			-4.516
52300.000			-36.128			-4.516
52401.000			-36.126			-4.516
52500.000			-36.123			-4.515
52600.000			-36.122			-4.515
52702.000			-36.120			-4.515
52801.000			-36.119			-4.515
52901.000			-36.117			-4.515
53000.000			-36.117			-4.515
53100.000			-36.115			-4.514
53201.000			-36.111			-4.514
53300.000			-36.110			-4.514
53400.000			-36.109			-4.514
53502.000			-36.108			-4.513
53601.000			-36.106			-4.513
53700.000			-36.103			-4.513
53801.000			-36.102			-4.513
53900.000			-36.101			-4.513
54000.000			-36.098			-4.512
54101.000			-36.097			-4.512
54200.000			-36.096			-4.512
54301.000			-36.094			-4.512
54402.000			-36.092			-4.512
54500.000			-36.091			-4.511
54600.000			-36.089			-4.511
54701.000			-36.087			-4.511
54800.000			-36.085			-4.511
54900.000			-36.084			-4.510
55001.000			-36.083			-4.510
55101.000			-36.081			-4.510
55201.000			-36.079			-4.510
55301.000			-36.077			-4.510
55400.000			-36.075			-4.509
55500.000			-36.073			-4.509
55601.000			-36.072			-4.509
55700.000			-36.071			-4.509
55800.000			-36.071			-4.509
55902.000			-36.069			-4.509
56001.000			-36.067			-4.508
56101.000			-36.064			-4.508
56200.000			-36.063			-4.508
56300.000			-36.061			-4.508
56401.000			-36.060			-4.508
56500.000			-36.059			-4.507
56600.000			-36.057			-4.507
56702.000			-36.057			-4.507
56801.000			-36.055			-4.507
56900.000			-36.051			-4.506
57001.000			-36.050			-4.506
57100.000			-36.048			-4.506
57200.000			-36.046			-4.506
57301.000			-36.045			-4.506
57400.000			-36.046			-4.506
57501.000			-36.045			-4.506
57602.000			-36.041			-4.505
57700.000			-36.039			-4.505
57800.000			-36.039			-4.505
57901.000			-36.037			-4.505
58000.000			-36.035			-4.504
58100.000			-36.034			-4.504
58201.000			-36.034			-4.504
58301.000			-36.030			-4.504
58401.000			-36.029			-4.504
58501.000			-36.028			-4.504
58600.000			-36.026			-4.503
58700.000			-36.025			-4.503
58801.000			-36.025			-4.503
58900.000			-36.023			-4.503
59000.000			-36.019			-4.502
59102.000			-36.018			-4.502
59201.000			-36.017			-4.502
59301.000			-36.016			-4.502
59400.000			-36.016			-4.502
59500.000			-36.014			-4.502
59601.000			-36.013			-4.502
59700.000			-36.011			-4.501
59800.000			-36.008			-4.501
59902.000			-36.007			-4.501
60001.000			-36.006			-4.501
60100.000			-36.005			-4.501
60201.000			-36.003			-4.500
60300.000			-36.002			-4.500
60400.000			-36.001			-4.500
60501.000			-35.998			-4.500
60601.000			-35.996			-4.500
60701.000			-35.995			-4.499
60801.000			-35.994			-4.499
60900.000			-35.993			-4.499
61000.000			-35.992			-4.499
61101.000			-35.990			-4.499
61200.000			-35.988			-4.498
61300.000			-35.986			-4.498
61401.000			-35.986			-4.498
61501.000			-35.985			-4.498
61601.000			-35.984			-4.498
61701.000			-35.981			-4.498
61800.000			-35.980			-4.498
61900.000			-35.977			-4.497
62001.000			-35.977			-4.497
62100.000			-35.976			-4.497
62200.000			-35.975			-4.497
62302.000			-35.973			-4.497
62401.000			-35.971			-4.496
62501.000			-35.970			-4.496
62600.000			-35.968			-4.496
62700.000			-35.967			-4.496
62801.000			-35.965			-4.496
62900.000			-35.965			-4.496
63000.000			-35.964			-4.495
63102.000			-35.961			-4.495
63201.000			-35.959			-4.495
63300.000			-35.957			-4.495
63401.000			-35.956			-4.495
63500.000			-35.956			-4.494
63600.000			-35.954			-4.494
63701.000			-35.953			-4.494
63800.000			-35.952			-4.494
63901.000			-35.950			-4.494
64002.000			-35.950			-4.494
64101.000			-35.946			-4.493
64200.000			-35.945			-4.493
64301.000			-35.944			-4.493
64400.000			-35.944			-4.493
64500.000			-35.942			-4.493
64601.000			-35.941			-4.493
64701.000			-35.941			-4.493
64801.000			-35.938			-4.492
64902.000			-35.937			-4.492
65000.000			-35.935			-4.492
65100.000			-35.934			-4.492
65201.000			-35.932			-4.492
65300.000			-35.931			-4.491
65400.000			-35.930			-4.491
65500.000			-35.929			-4.491
65601.000			-35.928			-4.491
65702.000			-35.926			-4.491
65800.000			-35.924			-4.491
65900.000			-35.923			-4.490
66001.000			-35.922			-4.490
66100.000			-35.920			-4.490
66200.000			-35.919			-4.490
66301.000			-35.918			-4.490
66401.000			-35.916			-4.489
66501.000			-35.914			-4.489
66601.000			-35.914			-4.489
66700.000			-35.913			-4.489
66800.000			-35.911			-4.489
66901.000			-35.910			-4.489
67000.000			-35.908			-4.488
67100.000			-35.907			-4.488
67202.000			-35.906			-4.488
67301.000			-35.905			-4.488
67400.000			-35.904			-4.488
67501.000			-35.903			-4.488
67600.000			-35.902			-4.488
67700.000			-35.899			-4.487
67801.000			-35.898			-4.487
67900.000			-35.897			-4.487
68000.000			-35.895			-4.487
68102.000			-35.895			-4.487
68201.000			-35.894			-4.487
68300.000			-35.893			-4.487
68401.000			-35.890			-4.486
68500.000			-35.889			-4.486
68600.000			-35.888			-4.486
68700.000			-35.887			-4.486
68800.000			-35.886			-4.486
68902.000			-35.884			-4.485
69001.000			-35.882			-4.485
69101.000			-35.881			-4.485
69201.000			-35.879			-4.485
69300.000			-35.877			-4.485
69400.000			-35.875			-4.484
69501.000			-35.875			-4.484
69600.000			-35.874			-4.484
69700.000			-35.873			-4.484
69802.000			-35.872			-4.484
69901.000			-35.870			-4.484
70000.000			-35.869			-4.484
70101.000			-35.868			-4.483
70200.000			-35.866			-4.483
70300.000			-35.866			-4.483
70401.000			-35.865			-4.483
70500.000			-35.863			-4.483
70600.000			-35.862			-4.483
70702.000			-35.860			-4.483
70801.000			-35.858			-4.482
70900.000			-35.858			-4.482
71001.000			-35.857			-4.482
71100.000			-35.855			-4.482
71200.000			-35.855			-4.482
71301.000			-35.852			-4.482
71400.000			-35.852			-4.481
71501.000			-35.850			-4.481
71602.000			-35.848			-4.481
71700.000			-35.847			-4.481
71800.000			-35.847			-4.481
71900.000			-35.845			-4.481
72000.000			-35.843			-4.480
72101.000			-35.842			-4.480
72200.000			-35.841			-4.480
72301.000			-35.840			-4.480
72402.000			-35.839			-4.480
72500.000			-35.839			-4.480
72600.000			-35.837			-4.480
72701.000			-35.836			-4.479
72800.000			-35.834			-4.479
72900.000			-35.832			-4.479
73001.000			-35.831			-4.479
73101.000			-35.830			-4.479
73201.000			-35.830			-4.479
73302.000			-35.829			-4.479
73400.000			-35.827			-4.478
73500.000			-35.826			-4.478
73601.000			-35.825			-4.478
73700.000			-35.823			-4.478
73800.000			-35.822			-4.478
73901.000			-35.821			-4.478
74001.000			-35.821			-4.478
74101.000			-35.819			-4.477
74201.000			-35.816			-4.477
74300.000			-35.815			-4.477
74400.000			-35.815			-4.477
74501.000			-35.814			-4.477
74600.000			-35.813			-4.477
74700.000			-35.812			-4.477
74802.000			-35.811			-4.476
74901.000			-35.809			-4.476
75000.000			-35.807			-4.476
75100.000			-35.807			-4.476
75200.000			-35.806			-4.476
75301.000			-35.805			-4.476
75400.000			-35.804			-4.475
75500.000			-35.803			-4.475
75602.000			-35.802			-4.475
75701.000			-35.800			-4.475
75800.000			-35.799			-4.475
75901.000			-35.797			-4.475
76000.000			-35.796			-4.475
76100.000			-35.796			-4.474
76201.000			-35.794			-4.474
76300.000			-35.793			-4.474
76400.000			-35.792			-4.474
76502.000			-35.790			-4.474
76601.000			-35.789			-4.474
76700.000			-35.789			-4.474
76801.000			-35.787			-4.473
76900.000			-35.786			-4.473
77000.000			-35.785			-4.473
77101.000			-35.784			-4.473
77200.000			-35.782			-4.473
77301.000			-35.781			-4.473
77402.000			-35.780			-4.472
77501.000			-35.779			-4.472
77600.000			-35.779			-4.472
77701.000			-35.778			-4.472
77800.000			-35.776			-4.472
77900.000			-35.774			-4.472
78001.000			-35.773			-4.472
78100.000			-35.772			-4.472
78202.000			-35.771			-4.471
78301.000			-35.770			-4.471
78400.000			-35.769			-4.471
78501.000			-35.768			-4.471
78600.000			-35.766			-4.471
78700.000			-35.766			-4.471
78801.000			-35.766			-4.471
78900.000			-35.764			-4.471
79001.000			-35.763			-4.470
79102.000			-35.761			-4.470
79201.000			-35.760			-4.470
79300.000			-35.759			-4.470
79401.000			-35.758			-4.470
79500.000			-35.757			-4.470
79600.000			-35.756			-4.470
79701.000			-35.756			-4.470
79800.000			-35.754			-4.469
79901.000			-35.753			-4.469
80002.000			-35.750			-4.469
80100.000			-35.749			-4.469
80200.000			-35.749			-4.469
80301.000			-35.749			-4.469
80400.000			-35.748			-4.468
80500.000			-35.746			-4.468
80601.000			-35.746			-4.468
80701.000			-35.744			-4.468
80801.000			-35.743			-4.468
80901.000			-35.742			-4.468
81000.000			-35.742			-4.468
81100.000			-35.740			-4.468
81201.000			-35.739			-4.467
81300.000			-35.737			-4.467
81400.000			-35.737			-4.467
81502.000			-35.735			-4.467
81601.000			-35.734			-4.467
81701.000			-35.733			-4.467
81800.000			-35.733			-4.467
81900.000			-35.732			-4.466
82001.000			-35.730			-4.466
82100.000			-35.730			-4.466
82200.000			-35.728			-4.466
82301.000			-35.727			-4.466
82401.000			-35.726			-4.466
82501.000			-35.724			-4.466
82601.000			-35.724			-4.466
82700.000			-35.723			-4.465
82800.000			-35.722			-4.465
82901.000			-35.720			-4.465
83000.000			-35.718			-4.465
83100.000			-35.718			-4.465
83202.000			-35.717			-4.465
83301.000			-35.717			-4.465
83400.000			-35.716			-4.464
83501.000			-35.715			-4.464
83600.000			-35.713			-4.464
83700.000			-35.713			-4.464
83801.000			-35.712			-4.464
83900.000			-35.712			-4.464
84001.000			-35.709			-4.464
84102.000			-35.708			-4.464
84200.000			-35.707			-4.463
84300.000			-35.706			-4.463
84401.000			-35.705			-4.463
84500.000			-35.704			-4.463
84600.000			-35.703			-4.463
84700.000			-35.702			-4.463
84801.000			-35.701			-4.463
84902.000			-35.699			-4.462
85000.000			-35.698			-4.462
85100.000			-35.696			-4.462
85201.000			-35.695			-4.462
85300.000			-35.694			-4.462
85400.000			-35.694			-4.462
85501.000			-35.693			-4.462
85601.000			-35.693			-4.462
85701.000			-35.692			-4.461
85802.000			-35.689			-4.461
85900.000			-35.688			-4.461
86000.000			-35.687			-4.461
86101.000			-35.687			-4.461
86200.000			-35.687			-4.461
86300.000			-35.684			-4.461
86401.000			-35.682			-4.460
86501.000			-35.683			-4.460
86601.000			-35.682			-4.460
86701.000			-35.680			-4.460
86800.000			-35.679			-4.460
86900.000			-35.678			-4.460
87001.000			-35.678			-4.460
87100.000			-35.677			-4.460
87200.000			-35.676			-4.459
87301.000			-35.675			-4.459
87401.000			-35.674			-4.459
87501.000			-35.673			-4.459
87601.000			-35.672			-4.459
87700.000			-35.670			-4.459
87800.000			-35.670			-4.459
87900.000			-35.668			-4.459
88000.000			-35.667			-4.458
88101.000			-35.666			-4.458
88201.000			-35.665			-4.458
88301.000			-35.665			-4.458
88401.000			-35.664			-4.458
88500.000			-35.664			-4.458
88600.000			-35.663			-4.458
88701.000			-35.661			-4.458
88800.000			-35.660			-4.457
88900.000			-35.660			-4.457
89001.000			-35.660			-4.457
89101.000			-35.659			-4.457
89201.000			-35.657			-4.457
89301.000			-35.655			-4.457
89400.000			-35.653			-4.457
89500.000			-35.653			-4.457
89601.000			-35.653			-4.457
89700.000			-35.651			-4.456
89800.000			-35.650			-4.456
89902.000			-35.650			-4.456
90001.000			-35.648			-4.456
90100.000			-35.646			-4.456
90201.000			-35.645			-4.456
90300.000			-35.644			-4.456
90400.000			-35.644			-4.456
90501.000			-35.643			-4.455
90600.000			-35.641			-4.455
90701.000			-35.642			-4.455
90802.000			-35.641			-4.455
90901.000			-35.638			-4.455
91000.000			-35.637			-4.455
91100.000			-35.637			-4.455
91200.000			-35.635			-4.454
91301.000			-35.635			-4.454
91400.000			-35.635			-4.454
91500.000			-35.633			-4.454
91602.000			-35.631			-4.454
91701.000			-35.629			-4.454
91800.000			-35.630			-4.454
91901.000			-35.630			-4.454
92000.000			-35.630			-4.454
92100.000			-35.628			-4.454
92201.000			-35.628			-4.453
92300.000			-35.625			-4.453
92401.000			-35.624			-4.453
92502.000			-35.624			-4.453
92600.000			-35.624			-4.453
92700.000			-35.623			-4.453
92801.000			-35.623			-4.453
92900.000			-35.621			-4.453
93000.000			-35.619			-4.452
93101.000			-35.619			-4.452
93201.000			-35.618			-4.452
93301.000			-35.616			-4.452
93401.000			-35.616			-4.452
93500.000			-35.614			-4.452
93600.000			-35.613			-4.452
93701.000			-35.612			-4.451
93800.000			-35.611			-4.451
93900.000			-35.610			-4.451
94002.000			-35.609			-4.451
94101.000			-35.608			-4.451
94200.000			-35.608			-4.451
94300.000			-35.608			-4.451
94400.000			-35.607			-4.451
94501.000			-35.605			-4.451
94600.000			-35.605			-4.451
94700.000			-35.605			-4.451
94802.000			-35.603			-4.450
94901.000			-35.602			-4.450
95001.000			-35.602			-4.450
95101.000			-35.600			-4.450
95200.000			-35.598			-4.450
95300.000			-35.597			-4.450
95401.000			-35.597			-4.450
95500.000			-35.597			-4.450
95600.000			-35.596			-4.449
95702.000			-35.595			-4.449
95801.000			-35.593			-4.449
95900.000			-35.592			-4.449
96001.000			-35.591			-4.449
96100.000			-35.590			-4.449
96200.000			-35.589			-4.449
96301.000			-35.589			-4.449
96400.000			-35.588			-4.448
96501.000			-35.587			-4.448
96602.000			-35.587			-4.448
96701.000			-35.584			-4.448
96800.000			-35.582			-4.448
96901.000			-35.582			-4.448
97000.000			-35.583			-4.448
97100.000			-35.581			-4.448
97201.000			-35.580			-4.448
97300.000			-35.580			-4.448
97402.000			-35.578			-4.447
97501.000			-35.578			-4.447
97600.000			-35.577			-4.447
97701.000			-35.575			-4.447
97800.000			-35.574			-4.447
97900.000			-35.574			-4.447
98001.000			-35.573			-4.447
98100.000			-35.572			-4.447
98201.000			-35.571			-4.446
98302.000			-35.571			-4.446
98401.000			-35.570			-4.446
98500.000			-35.568			-4.446
98601.000			-35.567			-4.446
98700.000			-35.567			-4.446
98800.000			-35.566			-4.446
98901.000			-35.565			-4.446
99000.000			-35.565			-4.446
99101.000			-35.564			-4.445
99202.000			-35.564			-4.445
99300.000			-35.562			-4.445
99400.000			-35.561			-4.445
99501.000			-35.560			-4.445
99600.000			-35.559			-4.445
99700.000			-35.558			-4.445
99801.000			-35.557			-4.445
99901.000			-35.557			-4.445
100001.000			-35.556			-4.445
100102.000			-35.556			-4.444
100200.000			-35.554			-4.444
100300.000			-35.554			-4.444
100401.000			-35.553			-4.444
100500.000			-35.553			-4.444
100600.000			-35.551			-4.444
100700.000			-35.551			-4.444
100801.000			-35.551			-4.444
100902.000			-35.549			-4.444
101000.000			-35.547			-4.443
101100.000			-35.546			-4.443
101201.000			-35.544			-4.443
101300.000			-35.544			-4.443
101400.000			-35.545			-4.443
101501.000			-35.544			-4.443
101601.000			-35.543			-4.443
101701.000			-35.540			-4.443
101801.000			-35.540			-4.442
101900.000			-35.539			-4.442
102000.000			-35.540			-4.442
102101.000			-35.538			-4.442
102200.000			-35.537			-4.442
102300.000			-35.536			-4.442
102402.000			-35.534			-4.442
102501.000			-35.532			-4.442
102601.000			-35.532			-4.442
102701.000			-35.532			-4.442
102800.000			-35.531			-4.441
102900.000			-35.530			-4.441
103001.000			-35.530			-4.441
103100.000			-35.530			-4.441
103201.000			-35.528			-4.441
103302.000			-35.527			-4.441
103401.000			-35.526			-4.441
103500.000			-35.525			-4.441
103601.000			-35.525			-4.441
103700.000			-35.524			-4.440
103800.000			-35.523			-4.440
103900.000			-35.521			-4.440
104000.000			-35.521			-4.440
104102.000			-35.521			-4.440
104201.000			-35.520			-4.440
104300.000			-35.520			-4.440
104401.000			-35.519			-4.440
104500.000			-35.517			-4.440
104600.000			-35.516			-4.440
104701.000			-35.515			-4.439
104800.000			-35.514			-4.439
104901.000			-35.514			-4.439
105002.000			-35.514			-4.439
105100.000			-35.514			-4.439
105200.000			-35.512			-4.439
105301.000			-35.510			-4.439
105400.000			-35.509			-4.439
105500.000			-35.508			-4.439
105601.000			-35.508			-4.439
105701.000			-35.507			-4.438
105801.000			-35.507			-4.438
105902.000			-35.507			-4.438
106000.000			-35.505			-4.438
106100.000			-35.505			-4.438
106201.000			-35.503			-4.438
106300.000			-35.502			-4.438
106400.000			-35.501			-4.438
106501.000			-35.501			-4.438
106601.000			-35.500			-4.438
106701.000			-35.500			-4.438
106801.000			-35.498			-4.437
106900.000			-35.497			-4.437
107000.000			-35.497			-4.437
107100.000			-35.496			-4.437
107200.000			-35.495			-4.437
107301.000			-35.495			-4.437
107401.000			-35.492			-4.437
107501.000			-35.492			-4.437
107602.000			-35.492			-4.436
107700.000			-35.491			-4.436
107800.000			-35.490			-4.436
107901.000			-35.489			-4.436
108000.000			-35.489			-4.436
108100.000			-35.489			-4.436
108201.000			-35.488			-4.436
108301.000			-35.485			-4.436
108401.000			-35.484			-4.436
108501.000			-35.485			-4.436
108600.000			-35.484			-4.435
108700.000			-35.483			-4.435
108801.000			-35.483			-4.435
108900.000			-35.483			-4.435
109000.000			-35.479			-4.435
109101.000			-35.478			-4.435
109201.000			-35.478			-4.435
109301.000			-35.478			-4.435
109401.000			-35.478			-4.435
109500.000			-35.477			-4.435
109600.000			-35.477			-4.435
109701.000			-35.474			-4.434
109800.000			-35.474			-4.434
109900.000			-35.472			-4.434
110001.000			-35.472			-4.434
110101.000			-35.472			-4.434
110202.000			-35.470			-4.434
110300.000			-35.469			-4.434
110400.000			-35.470			-4.434
110501.000			-35.469			-4.434
110600.000			-35.467			-4.433
110700.000			-35.466			-4.433
110801.000			-35.466			-4.433
110901.000			-35.465			-4.433
111001.000			-35.465			-4.433
111101.000			-35.464			-4.433
111200.000			-35.462			-4.433
111300.000			-35.462			-4.433
111401.000			-35.462			-4.433
111500.000			-35.461			-4.433
111600.000			-35.460			-4.433
111702.000			-35.459			-4.432
111801.000			-35.458			-4.432
111901.000			-35.457			-4.432
112001.000			-35.456			-4.432
112100.000			-35.455			-4.432
112200.000			-35.455			-4.432
112301.000			-35.454			-4.432
112400.000			-35.453			-4.432
112500.000			-35.452			-4.432
112602.000			-35.451			-4.431
112701.000			-35.451			-4.431
112800.000			-35.450			-4.431
112901.000			-35.449			-4.431
113000.000			-35.448			-4.431
113100.000			-35.447			-4.431
113201.000			-35.447			-4.431
113300.000			-35.445			-4.431
113402.000			-35.444			-4.431
113501.000			-35.444			-4.431
113600.000			-35.443			-4.430
113701.000			-35.443			-4.430
113800.000			-35.442			-4.430
113900.000			-35.442			-4.430
114001.000			-35.441			-4.430
114100.000			-35.439			-4.430
114201.000			-35.438			-4.430
114302.000			-35.437			-4.430
114400.000			-35.437			-4.430
114500.000			-35.436			-4.430
114601.000			-35.437			-4.430
114700.000			-35.436			-4.430
114800.000			-35.436			-4.429
114901.000			-35.434			-4.429
115000.000			-35.432			-4.429
115101.000			-35.432			-4.429
115202.000			-35.431			-4.429
115300.000			-35.431			-4.429
115400.000			-35.430			-4.429
115501.000			-35.429			-4.429
115600.000			-35.428			-4.429
115700.000			-35.428			-4.428
115801.000			-35.427			-4.428
115901.000			-35.425			-4.428
116001.000			-35.425			-4.428
116101.000			-35.425			-4.428
116200.000			-35.423			-4.428
116300.000			-35.423			-4.428
116401.000			-35.423			-4.428
116500.000			-35.422			-4.428
116600.000			-35.421			-4.428
116702.000			-35.420			-4.428
116801.000			-35.419			-4.427
116901.000			-35.419			-4.427
117000.000			-35.417			-4.427
117100.000			-35.416			-4.427
117201.000			-35.416			-4.427
117300.000			-35.415			-4.427
117400.000			-35.414			-4.427
117501.000			-35.414			-4.427
117601.000			-35.412			-4.427
117701.000			-35.411			-4.426
117801.000			-35.411			-4.426
117900.000			-35.410			-4.426
118000.000			-35.411			-4.426
118101.000			-35.409			-4.426
118200.000			-35.409			-4.426
118300.000			-35.409			-4.426
118402.000			-35.406			-4.426
118501.000			-35.406			-4.426
118600.000			-35.406			-4.426
118701.000			-35.405			-4.426
118800.000			-35.404			-4.426
118900.000			-35.403			-4.425
119001.000			-35.402			-4.425
119100.000			-35.402			-4.425
119200.000			-35.400			-4.425
119302.000			-35.400			-4.425
119401.000			-35.399			-4.425
119500.000			-35.397			-4.425
119601.000			-35.397			-4.425
119700.000			-35.397			-4.425
119800.000			-35.396			-4.425
119900.000			-35.396			-4.424
120000.000			-35.394			-4.424
120101.000			-35.394			-4.424
120201.000			-35.394			-4.424
120301.000			-35.393			-4.424
120401.000			-35.392			-4.424
120500.000			-35.391			-4.424
120600.000			-35.391			-4.424
120701.000			-35.390			-4.424
120800.000			-35.389			-4.424
120900.000			-35.389			-4.424
121002.000			-35.387			-4.423
121101.000			-35.387			-4.423
121200.000			-35.388			-4.423
121301.000			-35.384			-4.423
121400.000			-35.384			-4.423
121500.000			-35.385			-4.423
121601.000			-35.384			-4.423
121700.000			-35.384			-4.423
121800.000			-35.382			-4.423
121902.000			-35.382			-4.423
122001.000			-35.381			-4.423
122100.000			-35.380			-4.422
122201.000			-35.378			-4.422
122300.000			-35.378			-4.422
122400.000			-35.378			-4.422
122501.000			-35.378			-4.422
122600.000			-35.376			-4.422
122701.000			-35.377			-4.422
122802.000			-35.375			-4.422
122900.000			-35.375			-4.422
123000.000			-35.374			-4.422
123100.000			-35.373			-4.422
123200.000			-35.372			-4.422
123301.000			-35.371			-4.421
123400.000			-35.370			-4.421
123500.000			-35.370			-4.421
123602.000			-35.369			-4.421
123701.000			-35.369			-4.421
123800.000			-35.368			-4.421
123901.000			-35.368			-4.421
124000.000			-35.368			-4.421
124100.000			-35.366			-4.421
124201.000			-35.364			-4.421
124300.000			-35.364			-4.421
124401.000			-35.364			-4.420
124502.000			-35.363			-4.420
124601.000			-35.363			-4.420
124700.000			-35.362			-4.420
124801.000			-35.362			-4.420
124900.000			-35.362			-4.420
125000.000			-35.359			-4.420
125101.000			-35.358			-4.420
125200.000			-35.357			-4.420
125301.000			-35.357			-4.420
125402.000			-35.358			-4.420
125500.000			-35.358			-4.420
125600.000			-35.356			-4.419
125701.000			-35.354			-4.419
125800.000			-35.353			-4.419
125900.000			-35.353			-4.419
126001.000			-35.353			-4.419
126101.000			-35.353			-4.419
126202.000			-35.353			-4.419
126300.000			-35.352			-4.419
126400.000			-35.349			-4.419
126501.000			-35.349			-4.419
126600.000			-35.348			-4.418
126700.000			-35.348			-4.418
126801.000			-35.348			-4.418
126900.000			-35.347			-4.418
127001.000			-35.346			-4.418
127102.000			-35.344			-4.418
127200.000			-35.344			-4.418
127300.000			-35.344			-4.418
127401.000			-35.343			-4.418
127500.000			-35.342			-4.418
127600.000			-35.341			-4.418
127701.000			-35.341			-4.418
127801.000			-35.340			-4.418
127901.000			-35.340			-4.417
128002.000			-35.339			-4.417
128100.000			-35.338			-4.417
128200.000			-35.336			-4.417
128301.000			-35.336			-4.417
128400.000			-35.337			-4.417
128500.000			-35.337			-4.417
128601.000			-35.333			-4.417
128701.000			-35.333			-4.417
128801.000			-35.332			-4.417
128901.000			-35.332			-4.417
129000.000			-35.333			-4.417
129100.000			-35.332			-4.416
129201.000			-35.331			-4.416
129300.000			-35.330			-4.416
129400.000			-35.329			-4.416
129502.000			-35.329			-4.416
129601.000			-35.327			-4.416
129702.000			-35.326			-4.416
129800.000			-35.326			-4.416
129900.000			-35.326			-4.416
130001.000			-35.324			-4.416
130100.000			-35.323			-4.415
130200.000			-35.323			-4.415
130301.000			-35.324			-4.415
130401.000			-35.322			-4.415
130501.000			-35.322			-4.415
130601.000			-35.321			-4.415
130700.000			-35.320			-4.415
130800.000			-35.318			-4.415
130901.000			-35.318			-4.415
131000.000			-35.318			-4.415
131100.000			-35.317			-4.415
131202.000			-35.317			-4.415
131301.000			-35.317			-4.415
131400.000			-35.316			-4.415
131501.000			-35.315			-4.414
131600.000			-35.314			-4.414
131700.000			-35.313			-4.414
131801.000			-35.313			-4.414
131900.000			-35.312			-4.414
132000.000			-35.311			-4.414
132102.000			-35.310			-4.414
132201.000			-35.309			-4.414
132300.000			-35.308			-4.414
132401.000			-35.307			-4.413
132500.000			-35.308			-4.414
132600.000			-35.308			-4.414
132700.000			-35.306			-4.413
132800.000			-35.306			-4.413
132901.000			-35.305			-4.413
133001.000			-35.305			-4.413
133101.000			-35.304			-4.413
133201.000			-35.304			-4.413
133300.000			-35.302			-4.413
133400.000			-35.302			-4.413
133501.000			-35.302			-4.413
133600.000			-35.301			-4.413
133700.000			-35.300			-4.413
133801.000			-35.299			-4.412
133901.000			-35.299			-4.412
134001.000			-35.297			-4.412
134101.000			-35.296			-4.412
134200.000			-35.296			-4.412
134300.000			-35.296			-4.412
134401.000			-35.295			-4.412
134500.000			-35.295			-4.412
134600.000			-35.294			-4.412
134701.000			-35.294			-4.412
134801.000			-35.293			-4.412
134901.000			-35.292			-4.412
135002.000			-35.292			-4.411
135100.000			-35.290			-4.411
135200.000			-35.290			-4.411
135301.000			-35.289			-4.411
135400.000			-35.289			-4.411
135500.000			-35.289			-4.411
135601.000			-35.288			-4.411
135701.000			-35.287			-4.411
135802.000			-35.286			-4.411
135901.000			-35.285			-4.411
136000.000			-35.284			-4.411
136101.000			-35.284			-4.410
136200.000			-35.284			-4.410
136300.000			-35.283			-4.410
136401.000			-35.282			-4.410
136500.000			-35.282			-4.410
136600.000			-35.280			-4.410
136702.000			-35.280			-4.410
136801.000			-35.280			-4.410
136900.000			-35.278			-4.410
137001.000			-35.277			-4.410
137100.000			-35.278			-4.410
137200.000			-35.278			-4.410
137301.000			-35.276			-4.410
137400.000			-35.276			-4.409
137500.000			-35.275			-4.409
137602.000			-35.274			-4.409
137701.000			-35.274			-4.409
137801.000			-35.274			-4.409
137901.000			-35.274			-4.409
138000.000			-35.271			-4.409
138100.000			-35.270			-4.409
138201.000			-35.270			-4.409
138300.000			-35.271			-4.409
138400.000			-35.270			-4.409
138501.000			-35.269			-4.409
138601.000			-35.269			-4.409
138701.000			-35.267			-4.408
138801.000			-35.266			-4.408
138900.000			-35.266			-4.408
139000.000			-35.266			-4.408
139100.000			-35.265			-4.408
139200.000			-35.265			-4.408
139301.000			-35.264			-4.408
139400.000			-35.264			-4.408
139501.000			-35.263			-4.408
139602.000			-35.262			-4.408
139701.000			-35.262			-4.408
139800.000			-35.262			-4.408
139901.000			-35.260			-4.408
140000.000			-35.259			-4.407
140100.000			-35.259			-4.407
140201.000			-35.258			-4.407
140300.000			-35.258			-4.407
140401.000			-35.257			-4.407
140502.000			-35.257			-4.407
140601.000			-35.256			-4.407
140700.000			-35.255			-4.407
140801.000			-35.255			-4.407
140900.000			-35.254			-4.407
141000.000			-35.254			-4.407
141101.000			-35.253			-4.407
141200.000			-35.252			-4.407
141301.000			-35.252			-4.406
141402.000			-35.250			-4.406
141501.000			-35.250			-4.406
141600.000			-35.249			-4.406
141701.000			-35.248			-4.406
141800.000			-35.248			-4.406
141900.000			-35.248			-4.406
142001.000			-35.248			-4.406
142100.000			-35.246			-4.406
142200.000			-35.246			-4.406
142302.000			-35.246			-4.406
142401.000			-35.244			-4.406
142501.000			-35.244			-4.406
142600.000			-35.244			-4.406
142700.000			-35.243			-4.405
142801.000			-35.242			-4.405
142900.000			-35.241			-4.405
143000.000			-35.241			-4.405
143101.000			-35.241			-4.405
143201.000			-35.240			-4.405
143301.000			-35.239			-4.405
143401.000			-35.239			-4.405
143500.000			-35.238			-4.405
143600.000			-35.237			-4.405
143701.000			-35.237			-4.405
143800.000			-35.236			-4.404
143900.000			-35.235			-4.404
144001.000			-35.233			-4.404
144101.000			-35.234			-4.404
144201.000			-35.234			-4.404
144301.000			-35.232			-4.404
144400.000			-35.231			-4.404
144500.000			-35.231			-4.404
144601.000			-35.231			-4.404
144700.000			-35.230			-4.404
144800.000			-35.228			-4.404
144901.000			-35.228			-4.404
145001.000			-35.230			-4.404
145101.000			-35.229			-4.404
145201.000			-35.228			-4.403
145300.000			-35.226			-4.403
145400.000			-35.226			-4.403
145500.000			-35.225			-4.403
145600.000			-35.225			-4.403
145701.000			-35.225			-4.403
145800.000			-35.224			-4.403
145901.000			-35.223			-4.403
146002.000			-35.222			-4.403
146101.000			-35.222			-4.403
146200.000			-35.221			-4.403
146301.000			-35.220			-4.403
146400.000			-35.220			-4.403
146500.000			-35.220			-4.403
146601.000			-35.219			-4.402
146700.000			-35.217			-4.402
146801.000			-35.217			-4.402
146902.000			-35.217			-4.402
147001.000			-35.216			-4.402
147100.000			-35.215			-4.402
147201.000			-35.215			-4.402
147300.000			-35.215			-4.402
147400.000			-35.216			-4.402
147501.000			-35.214			-4.402
147600.000			-35.213			-4.402
147701.000			-35.212			-4.401
147802.000			-35.210			-4.401
147901.000			-35.210			-4.401
148000.000			-35.210			-4.401
148101.000			-35.210			-4.401
148200.000			-35.209			-4.401
148300.000			-35.209			-4.401
148401.000			-35.209			-4.401
148500.000			-35.208			-4.401
148600.000			-35.207			-4.401
148702.000			-35.208			-4.401
148801.000			-35.207			-4.401
148901.000			-35.205			-4.401
149000.000			-35.206			-4.401
149100.000			-35.205			-4.401
149201.000			-35.203			-4.400
149300.000			-35.202			-4.400
149400.000			-35.203			-4.400
149501.000			-35.202			-4.400
149601.000			-35.201			-4.400
149701.000			-35.200			-4.400
149801.000			-35.200			-4.400
149900.000			-35.200			-4.400
150000.000			-35.199			-4.400
150101.000			-35.199			-4.400
150200.000			-35.198			-4.400
150300.000			-35.198			-4.400
150401.000			-35.196			-4.400
150501.000			-35.195			-4.399
150601.000			-35.196			-4.399
150702.000			-35.196			-4.399
150800.000			-35.194			-4.399
150900.000			-35.194			-4.399
151001.000			-35.194			-4.399
151100.000			-35.192			-4.399
151200.000			-35.190			-4.399
151301.000			-35.190			-4.399
151401.000			-35.190			-4.399
151501.000			-35.190			-4.399
151602.000			-35.190			-4.399
151700.000			-35.189			-4.399
151800.000			-35.187			-4.398
151900.000			-35.188			-4.398
152000.000			-35.187			-4.398
152101.000			-35.187			-4.398
152200.000			-35.187			-4.398
152300.000			-35.185			-4.398
152402.000			-35.184			-4.398
152501.000			-35.185			-4.398
152600.000			-35.184			-4.398
152701.000			-35.183			-4.398
152800.000			-35.182			-4.398
152900.000			-35.183			-4.398
153001.000			-35.182			-4.398
153100.000			-35.180			-4.398
153200.000			-35.180			-4.398
153302.000			-35.180			-4.397
153401.000			-35.179			-4.397
153501.000			-35.178			-4.397
153601.000			-35.177			-4.397
153700.000			-35.176			-4.397
153800.000			-35.175			-4.397
153901.000			-35.177			-4.397
154000.000			-35.174			-4.397
154100.000			-35.174			-4.397
154202.000			-35.173			-4.397
154301.000			-35.173			-4.397
154401.000			-35.174			-4.397
154501.000			-35.172			-4.397
154600.000			-35.172			-4.396
154700.000			-35.170			-4.396
154801.000			-35.170			-4.396
154900.000			-35.170			-4.396
155000.000			-35.170			-4.396
155100.000			-35.169			-4.396
155201.000			-35.167			-4.396
155302.000			-35.168			-4.396
155400.000			-35.166			-4.396
155500.000			-35.166			-4.396
155601.000			-35.166			-4.396
155700.000			-35.166			-4.396
155800.000			-35.165			-4.396
155901.000			-35.164			-4.395
156000.000			-35.163			-4.395
156101.000			-35.163			-4.395
156202.000			-35.163			-4.395
156301.000			-35.163			-4.395
156400.000			-35.163			-4.395
156501.000			-35.163			-4.395
156600.000			-35.161			-4.395
156700.000			-35.161			-4.395
156801.000			-35.160			-4.395
156900.000			-35.159			-4.395
157000.000			-35.158			-4.395
157102.000			-35.158			-4.395
157201.000			-35.158			-4.395
157300.000			-35.158			-4.395
157401.000			-35.157			-4.395
157500.000			-35.156			-4.394
157600.000			-35.154			-4.394
157701.000			-35.154			-4.394
157800.000			-35.154			-4.394
157900.000			-35.153			-4.394
158002.000			-35.153			-4.394
158101.000			-35.152			-4.394
158200.000			-35.152			-4.394
158300.000			-35.151			-4.394
158400.000			-35.150			-4.394
158501.000			-35.148			-4.394
158600.000			-35.149			-4.394
158700.000			-35.150			-4.394
158801.000			-35.150			-4.394
158901.000			-35.149			-4.394
159001.000			-35.147			-4.393
159102.000			-35.147			-4.393
159200.000			-35.146			-4.393
159300.000			-35.146			-4.393
159401.000			-35.145			-4.393
159500.000			-35.145			-4.393
159600.000			-35.145			-4.393
159701.000			-35.144			-4.393
159800.000			-35.143			-4.393
159901.000			-35.143			-4.393
160002.000			-35.141			-4.393
160101.000			-35.141			-4.393
160200.000			-35.141			-4.393
160301.000			-35.139			-4.392
160400.000			-35.138			-4.392
160500.000			-35.138			-4.392
160601.000			-35.137			-4.392
160700.000			-35.137			-4.392
160801.000			-35.136			-4.392
160902.000			-35.136			-4.392
161001.000			-35.136			-4.392
161100.000			-35.135			-4.392
161201.000			-35.135			-4.392
161300.000			-35.134			-4.392
161400.000			-35.133			-4.392
161500.000			-35.133			-4.392
161600.000			-35.133			-4.392
161702.000			-35.131			-4.391
161801.000			-35.131			-4.391
161901.000			-35.131			-4.391
162001.000			-35.131			-4.391
162100.000			-35.130			-4.391
162200.000			-35.130			-4.391
162301.000			-35.129			-4.391
162400.000			-35.128			-4.391
162500.000			-35.126			-4.391
162602.000			-35.127			-4.391
162701.000			-35.127			-4.391
162801.000			-35.126			-4.391
162901.000			-35.125			-4.391
163000.000			-35.125			-4.391
163100.000			-35.125			-4.391
163201.000			-35.125			-4.391
163300.000			-35.124			-4.391
163400.000			-35.123			-4.390
163502.000			-35.123			-4.390
163601.000			-35.122			-4.390
163701.000			-35.121			-4.390
163801.000			-35.121			-4.390
163900.000			-35.120			-4.390
164000.000			-35.120			-4.390
164101.000			-35.118			-4.390
164200.000			-35.119			-4.390
164300.000			-35.118			-4.390
164402.000			-35.118			-4.390
164501.000			-35.118			-4.390
164600.000			-35.117			-4.390
164700.000			-35.116			-4.390
164800.000			-35.116			-4.390
164901.000			-35.115			-4.389
165000.000			-35.114			-4.389
165100.000			-35.114			-4.389
165201.000			-35.113			-4.389
165301.000			-35.112			-4.389
165401.000			-35.112			-4.389
165502.000			-35.112			-4.389
165600.000			-35.110			-4.389
165700.000			-35.111			-4.389
165801.000			-35.110			-4.389
165900.000			-35.109			-4.389
166000.000			-35.109			-4.389
166101.000			-35.108			-4.389
166201.000			-35.108			-4.389
166301.000			-35.108			-4.389
166402.000			-35.108			-4.388
166500.000			-35.106			-4.388
166600.000			-35.106			-4.388
166701.000			-35.106			-4.388
166800.000			-35.106			-4.388
166900.000			-35.104			-4.388
167001.000			-35.103			-4.388
167101.000			-35.103			-4.388
167201.000			-35.103			-4.388
167302.000			-35.103			-4.388
167400.000			-35.102			-4.388
167500.000			-35.101			-4.388
167601.000			-35.100			-4.388
167700.000			-35.102			-4.388
167800.000			-35.100			-4.387
167900.000			-35.099			-4.387
168000.000			-35.097			-4.387
168102.000			-35.098			-4.387
168201.000			-35.097			-4.387
168300.000			-35.097			-4.387
168401.000			-35.096			-4.387
168500.000			-35.096			-4.387
168600.000			-35.096			-4.387
168701.000			-35.096			-4.387
168800.000			-35.095			-4.387
168900.000			-35.093			-4.387
169002.000			-35.092			-4.387
169101.000			-35.093			-4.387
169201.000			-35.092			-4.386
169301.000			-35.091			-4.386
169400.000			-35.091			-4.386
169500.000			-35.091			-4.386
169601.000			-35.090			-4.386
169700.000			-35.089			-4.386
169800.000			-35.089			-4.386
169901.000			-35.088			-4.386
170001.000			-35.088			-4.386
170101.000			-35.087			-4.386
170201.000			-35.086			-4.386
170300.000			-35.087			-4.386
170400.000			-35.086			-4.386
170501.000			-35.085			-4.386
170600.000			-35.085			-4.386
170700.000			-35.084			-4.386
170801.000			-35.084			-4.386
170901.000			-35.084			-4.385
171002.000			-35.083			-4.385
171101.000			-35.082			-4.385
171200.000			-35.083			-4.385
171301.000			-35.083			-4.385
171400.000			-35.080			-4.385
171500.000			-35.080			-4.385
171601.000			-35.079			-4.385
171700.000			-35.079			-4.385
171801.000			-35.079			-4.385
171902.000			-35.078			-4.385
172001.000			-35.076			-4.385
172100.000			-35.077			-4.385
172201.000			-35.077			-4.385
172300.000			-35.076			-4.385
172400.000			-35.075			-4.384
172501.000			-35.075			-4.384
172600.000			-35.074			-4.384
172700.000			-35.074			-4.384
172802.000			-35.073			-4.384
172901.000			-35.072			-4.384
173000.000			-35.072			-4.384
173101.000			-35.071			-4.384
173200.000			-35.071			-4.384
173300.000			-35.070			-4.384
173401.000			-35.069			-4.384
173500.000			-35.068			-4.384
173600.000			-35.069			-4.384
173702.000			-35.068			-4.384
173801.000			-35.068			-4.383
173900.000			-35.067			-4.383
174001.000			-35.068			-4.383
174100.000			-35.067			-4.383
174200.000			-35.067			-4.383
174300.000			-35.064			-4.383
174400.000			-35.065			-4.383
174501.000			-35.065			-4.383
174601.000			-35.064			-4.383
174701.000			-35.065			-4.383
174802.000			-35.063			-4.383
174900.000			-35.063			-4.383
175000.000			-35.062			-4.383
175101.000			-35.062			-4.383
175200.000			-35.061			-4.383
175300.000			-35.061			-4.383
175401.000			-35.060			-4.383
175501.000			-35.060			-4.383
175601.000			-35.060			-4.383
175702.000			-35.059			-4.382
175800.000			-35.058			-4.382
175900.000			-35.058			-4.382
176001.000			-35.057			-4.382
176100.000			-35.056			-4.382
176200.000			-35.056			-4.382
176301.000			-35.055			-4.382
176400.000			-35.055			-4.382
176501.000			-35.054			-4.382
176602.000			-35.055			-4.382
176700.000			-35.054			-4.382
176800.000			-35.053			-4.382
176901.000			-35.053			-4.382
177000.000			-35.052			-4.382
177100.000			-35.051			-4.381
177201.000			-35.051			-4.381
177300.000			-35.051			-4.381
177402.000			-35.050			-4.381
177501.000			-35.050			-4.381
177601.000			-35.050			-4.381
177701.000			-35.048			-4.381
177800.000			-35.047			-4.381
177900.000			-35.049			-4.381
178001.000			-35.048			-4.381
178100.000			-35.047			-4.381
178200.000			-35.047			-4.381
178301.000			-35.046			-4.381
178401.000			-35.046			-4.381
178501.000			-35.045			-4.381
178601.000			-35.044			-4.380
178700.000			-35.043			-4.380
178800.000			-35.043			-4.380
178901.000			-35.043			-4.380
179000.000			-35.042			-4.380
179100.000			-35.041			-4.380
179201.000			-35.042			-4.380
179301.000			-35.041			-4.380
179401.000			-35.041			-4.380
179501.000			-35.039			-4.380
179600.000			-35.038			-4.380
179700.000			-35.038			-4.380
179801.000			-35.039			-4.380
179900.000			-35.039			-4.380
180000.000			-35.038			-4.380
180101.000			-35.037			-4.380
180201.000			-35.036			-4.380
180301.000			-35.036			-4.379
180402.000			-35.036			-4.379
180500.000			-35.034			-4.379
180600.000			-35.035			-4.379
180700.000			-35.034			-4.379
180800.000			-35.033			-4.379
180901.000			-35.032			-4.379
181000.000			-35.032			-4.379
181101.000			-35.031			-4.379
181202.000			-35.031			-4.379
181301.000			-35.031			-4.379
181400.000			-35.030			-4.379
181501.000			-35.029			-4.379
181600.000			-35.028			-4.379
181700.000			-35.028			-4.379
181801.000			-35.028			-4.379
181900.000			-35.027			-4.378
182001.000			-35.027			-4.378
182102.000			-35.027			-4.378
182201.000			-35.027			-4.378
182300.000			-35.025			-4.378
182401.000			-35.025			-4.378
182500.000			-35.025			-4.378
182600.000			-35.025			-4.378
182701.000			-35.025			-4.378
182800.000			-35.024			-4.378
182900.000			-35.024			-4.378
183002.000			-35.023			-4.378
183101.000			-35.022			-4.378
183200.000			-35.022			-4.378
183301.000			-35.022			-4.378
183400.000			-35.021			-4.378
183500.000			-35.019			-4.377
183601.000			-35.019			-4.377
183700.000			-35.018			-4.377
183800.000			-35.018			-4.377
183902.000			-35.018			-4.377
184001.000			-35.017			-4.377
184101.000			-35.017			-4.377
184200.000			-35.016			-4.377
184300.000			-35.016			-4.377
184401.000			-35.016			-4.377
184500.000			-35.014			-4.377
184600.000			-35.013			-4.377
184701.000			-35.013			-4.377
184801.000			-35.013			-4.377
184901.000			-35.013			-4.377
185001.000			-35.013			-4.377
185100.000			-35.013			-4.377
185200.000			-35.012			-4.376
185301.000			-35.011			-4.376
185400.000			-35.011			-4.376
185500.000			-35.010			-4.376
185601.000			-35.010			-4.376
185701.000			-35.010			-4.376
185801.000			-35.009			-4.376
185901.000			-35.008			-4.376
186000.000			-35.008			-4.376
186100.000			-35.008			-4.376
186201.000			-35.007			-4.376
186300.000			-35.008			-4.376
186400.000			-35.007			-4.376
186501.000			-35.006			-4.376
186601.000			-35.005			-4.376
186701.000			-35.004			-4.376
186802.000			-35.004			-4.375
186900.000			-35.003			-4.375
187000.000			-35.003			-4.375
187100.000			-35.003			-4.375
187200.000			-35.002			-4.375
187301.000			-35.001			-4.375
187400.000			-35.001			-4.375
187500.000			-35.000			-4.375
187602.000			-34.999			-4.375
187701.000			-34.999			-4.375
187800.000			-34.999			-4.375
187901.000			-34.999			-4.375
188000.000			-34.998			-4.375
188100.000			-34.997			-4.375
188201.000			-34.998			-4.375
188300.000			-34.997			-4.375
188400.000			-34.997			-4.375
188501.000			-34.997			-4.375
188601.000			-34.996			-4.375
188701.000			-34.995			-4.374
188801.000			-34.995			-4.374
188900.000			-34.994			-4.374
189000.000			-34.994			-4.374
189101.000			-34.993			-4.374
189200.000			-34.993			-4.374
189300.000			-34.991			-4.374
189401.000			-34.990			-4.374
189500.000			-34.991			-4.374
189601.000			-34.991			-4.374
189702.000			-34.990			-4.374
189801.000			-34.989			-4.374
189900.000			-34.989			-4.374
190001.000			-34.989			-4.374
190100.000			-34.988			-4.374
190200.000			-34.988			-4.373
190300.000			-34.988			-4.373
190400.000			-34.986			-4.373
190501.000			-34.986			-4.373
190601.000			-34.985			-4.373
190701.000			-34.985			-4.373
190802.000			-34.986			-4.373
190900.000			-34.985			-4.373
191000.000			-34.982			-4.373
191101.000			-34.983			-4.373
191200.000			-34.985			-4.373
191300.000			-34.983			-4.373
191401.000			-34.983			-4.373
191500.000			-34.983			-4.373
191601.000			-34.981			-4.373
191702.000			-34.981			-4.373
191801.000			-34.981			-4.373
191900.000			-34.981			-4.373
192001.000			-34.980			-4.373
192100.000			-34.981			-4.373
192200.000			-34.981			-4.373
192301.000			-34.979			-4.372
192400.000			-34.978			-4.372
192500.000			-34.977			-4.372
192602.000			-34.977			-4.372
192701.000			-34.976			-4.372
192800.000			-34.977			-4.372
192901.000			-34.975			-4.372
193000.000			-34.975			-4.372
193100.000			-34.974			-4.372
193201.000			-34.975			-4.372
193300.000			-34.974			-4.372
193400.000			-34.974			-4.372
193500.000			-34.973			-4.372
193601.000			-34.972			-4.372
193702.000			-34.971			-4.371
193800.000			-34.970			-4.371
193900.000			-34.972			-4.371
194001.000			-34.971			-4.371
194100.000			-34.969			-4.371
194200.000			-34.969			-4.371
194301.000			-34.969			-4.371
194400.000			-34.970			-4.371
194500.000			-34.969			-4.371
194602.000			-34.967			-4.371
194701.000			-34.967			-4.371
194800.000			-34.967			-4.371
194901.000			-34.966			-4.371
195000.000			-34.966			-4.371
195100.000			-34.966			-4.371
195201.000			-34.965			-4.371
195300.000			-34.964			-4.371
195400.000			-34.963			-4.370
195502.000			-34.963			-4.370
195601.000			-34.963			-4.370
195701.000			-34.963			-4.370
195801.000			-34.963			-4.370
195900.000			-34.962			-4.370
196000.000			-34.961			-4.370
196101.000			-34.960			-4.370
196200.000			-34.960			-4.370
196300.000			-34.960			-4.370
196401.000			-34.960			-4.370
196501.000			-34.959			-4.370
196602.000			-34.958			-4.370
196701.000			-34.957			-4.370
196800.000			-34.957			-4.370
196901.000			-34.957			-4.370
197000.000			-34.957			-4.370
197100.000			-34.957			-4.370
197201.000			-34.957			-4.370
197300.000			-34.956			-4.370
197400.000			-34.955			-4.369
197502.000			-34.954			-4.369
197601.000			-34.954			-4.369
197701.000			-34.954			-4.369
197801.000			-34.954			-4.369
197900.000			-34.954			-4.369
198000.000			-34.954			-4.369
198101.000			-34.953			-4.369
198200.000			-34.951			-4.369
198300.000			-34.950			-4.369
198401.000			-34.950			-4.369
198501.000			-34.950			-4.369
198601.000			-34.949			-4.369
198702.000			-34.950			-4.369
198800.000			-34.949			-4.369
198900.000			-34.949			-4.369
199001.000			-34.948			-4.368
199100.000			-34.947			-4.368
199200.000			-34.948			-4.368
199301.000			-34.947			-4.368
199400.000			-34.947			-4.368
199500.000			-34.947			-4.368
199602.000			-34.946			-4.368
199701.000			-34.944			-4.368
199800.000			-34.942			-4.368
199900.000			-34.943			-4.368
200000.000			-34.944			-4.368
200101.000			-34.942			-4.368
200200.000			-34.941			-4.368
200300.000			-34.942			-4.368
200401.000			-34.941			-4.368
200501.000			-34.940			-4.368
200601.000			-34.940			-4.368
200702.000			-34.940			-4.368
200800.000			-34.940			-4.368
200900.000			-34.941			-4.368
201001.000			-34.940			-4.367
201100.000			-34.939			-4.367
201200.000			-34.938			-4.367
201301.000			-34.937			-4.367
201401.000			-34.936			-4.367
201501.000			-34.936			-4.367
201602.000			-34.937			-4.367
201700.000			-34.936			-4.367
201800.000			-34.935			-4.367
201901.000			-34.934			-4.367
202000.000			-34.935			-4.367
202100.000			-34.934			-4.367
202201.000			-34.934			-4.367
202301.000			-34.933			-4.367
202401.000			-34.933			-4.367
202502.000			-34.933			-4.367
202600.000			-34.933			-4.367
202700.000			-34.931			-4.366
202801.000			-34.929			-4.366
202900.000			-34.930			-4.366
203000.000			-34.931			-4.366
203100.000			-34.930			-4.366
203201.000			-34.930			-4.366
203302.000			-34.929			-4.366
203401.000			-34.929			-4.366
203500.000			-34.927			-4.366
203601.000			-34.928			-4.366
203700.000			-34.928			-4.366
203800.000			-34.927			-4.366
203901.000			-34.926			-4.366
204000.000			-34.925			-4.366
204100.000			-34.925			-4.366
204202.000			-34.925			-4.366
204301.000			-34.925			-4.366
204400.000			-34.924			-4.366
204501.000			-34.924			-4.365
204600.000			-34.924			-4.365
204700.000			-34.924			-4.365
204801.000			-34.922			-4.365
204900.000			-34.922			-4.365
205000.000			-34.921			-4.365
205102.000			-34.921			-4.365
205201.000			-34.920			-4.365
205300.000			-34.920			-4.365
205401.000			-34.921			-4.365
205500.000			-34.920			-4.365
205600.000			-34.919			-4.365
205701.000			-34.919			-4.365
205800.000			-34.917			-4.365
205900.000			-34.917			-4.365
206002.000			-34.918			-4.365
206101.000			-34.917			-4.365
206202.000			-34.916			-4.365
206300.000			-34.916			-4.364
206400.000			-34.915			-4.364
206501.000			-34.915			-4.364
206600.000			-34.914			-4.364
206700.000			-34.913			-4.364
206801.000			-34.914			-4.364
206901.000			-34.913			-4.364
207001.000			-34.913			-4.364
207102.000			-34.912			-4.364
207200.000			-34.912			-4.364
207300.000			-34.913			-4.364
207401.000			-34.912			-4.364
207500.000			-34.911			-4.364
207600.000			-34.911			-4.364
207701.000			-34.909			-4.364
207800.000			-34.909			-4.364
207901.000			-34.909			-4.364
208002.000			-34.909			-4.364
208100.000			-34.908			-4.364
208200.000			-34.908			-4.364
208301.000			-34.908			-4.364
208400.000			-34.907			-4.363
208500.000			-34.907			-4.363
208601.000			-34.907			-4.363
208700.000			-34.906			-4.363
208801.000			-34.906			-4.363
208902.000			-34.905			-4.363
209001.000			-34.904			-4.363
209100.000			-34.903			-4.363
209201.000			-34.903			-4.363
209300.000			-34.903			-4.363
209400.000			-34.902			-4.363
209500.000			-34.902			-4.363
209600.000			-34.902			-4.363
209701.000			-34.901			-4.363
209801.000			-34.900			-4.363
209901.000			-34.901			-4.363
210001.000			-34.900			-4.363
210100.000			-34.899			-4.362
210200.000			-34.899			-4.362
210301.000			-34.899			-4.362
210400.000			-34.899			-4.362
210500.000			-34.899			-4.362
210601.000			-34.897			-4.362
210701.000			-34.897			-4.362
210801.000			-34.897			-4.362
210901.000			-34.896			-4.362
211000.000			-34.896			-4.362
211100.000			-34.896			-4.362
211201.000			-34.895			-4.362
211300.000			-34.893			-4.362
211400.000			-34.894			-4.362
211501.000			-34.894			-4.362
211601.000			-34.895			-4.362
211701.000			-34.894			-4.362
211802.000			-34.893			-4.362
211900.000			-34.894			-4.362
212000.000			-34.892			-4.361
212101.000			-34.891			-4.361
212200.000			-34.892			-4.361
212300.000			-34.891			-4.361
212401.000			-34.890			-4.361
212500.000			-34.890			-4.361
212602.000			-34.890			-4.361
212701.000			-34.888			-4.361
212800.000			-34.887			-4.361
212901.000			-34.887			-4.361
213000.000			-34.887			-4.361
213100.000			-34.887			-4.361
213201.000			-34.887			-4.361
213300.000			-34.886			-4.361
213400.000			-34.885			-4.361
213502.000			-34.885			-4.361
213601.000			-34.884			-4.361
213701.000			-34.884			-4.361
213801.000			-34.884			-4.360
213900.000			-34.884			-4.361
214000.000			-34.883			-4.360
214101.000			-34.882			-4.360
214200.000			-34.881			-4.360
214300.000			-34.882			-4.360
214401.000			-34.882			-4.360
214501.000			-34.882			-4.360
214601.000			-34.881			-4.360
214701.000			-34.881			-4.360
214800.000			-34.880			-4.360
214900.000			-34.880			-4.360
215001.000			-34.878			-4.360
215100.000			-34.878			-4.360
215200.000			-34.878			-4.360
215301.000			-34.877			-4.360
215401.000			-34.877			-4.360
215501.000			-34.877			-4.360
215602.000			-34.877			-4.360
215700.000			-34.877			-4.360
215800.000			-34.877			-4.360
215900.000			-34.876			-4.360
216000.000			-34.875			-4.359
216101.000			-34.874			-4.359
216200.000			-34.875			-4.359
216300.000			-34.875			-4.359
216402.000			-34.873			-4.359
216501.000			-34.873			-4.359
216600.000			-34.872			-4.359
216701.000			-34.872			-4.359
216800.000			-34.872			-4.359
216900.000			-34.872			-4.359
217001.000			-34.872			-4.359
217100.000			-34.869			-4.359
217200.000			-34.870			-4.359
217302.000			-34.870			-4.359
217401.000			-34.868			-4.359
217501.000			-34.867			-4.358
217601.000			-34.867			-4.358
217700.000			-34.867			-4.358
217800.000			-34.866			-4.358
217901.000			-34.866			-4.358
218000.000			-34.867			-4.358
218100.000			-34.866			-4.358
218201.000			-34.866			-4.358
218301.000			-34.865			-4.358
218401.000			-34.864			-4.358
218502.000			-34.864			-4.358
218600.000			-34.864			-4.358
218700.000			-34.864			-4.358
218801.000			-34.864			-4.358
218900.000			-34.863			-4.358
219000.000			-34.863			-4.358
219100.000			-34.861			-4.358
219200.000			-34.860			-4.358
219302.000			-34.861			-4.358
219401.000			-34.860			-4.358
219500.000			-34.859			-4.357
219601.000			-34.860			-4.357
219700.000			-34.860			-4.357
219800.000			-34.859			-4.357
219901.000			-34.858			-4.357
220000.000			-34.858			-4.357
220100.000			-34.858			-4.357
220202.000			-34.856			-4.357
220301.000			-34.856			-4.357
220401.000			-34.856			-4.357
220501.000			-34.855			-4.357
220600.000			-34.855			-4.357
220700.000			-34.855			-4.357
220801.000			-34.855			-4.357
220900.000			-34.855			-4.357
221000.000			-34.854			-4.357
221101.000			-34.853			-4.357
221201.000			-34.852			-4.357
221301.000			-34.851			-4.356
221401.000			-34.852			-4.356
221500.000			-34.852			-4.357
221600.000			-34.852			-4.356
221701.000			-34.852			-4.356
221800.000			-34.850			-4.356
221900.000			-34.850			-4.356
222001.000			-34.850			-4.356
222101.000			-34.849			-4.356
222202.000			-34.850			-4.356
222300.000			-34.849			-4.356
222400.000			-34.848			-4.356
222501.000			-34.848			-4.356
222600.000			-34.847			-4.356
222700.000			-34.847			-4.356
222801.000			-34.846			-4.356
222900.000			-34.847			-4.356
223001.000			-34.845			-4.356
223102.000			-34.846			-4.356
223201.000			-34.846			-4.356
223300.000			-34.846			-4.356
223401.000			-34.844			-4.356
223500.000			-34.844			-4.355
223600.000			-34.843			-4.355
223701.000			-34.843			-4.355
223800.000			-34.843			-4.355
223900.000			-34.842			-4.355
224002.000			-34.842			-4.355
224101.000			-34.841			-4.355
224200.000			-34.841			-4.355
224301.000			-34.840			-4.355
224400.000			-34.840			-4.355
224500.000			-34.840			-4.355
224601.000			-34.839			-4.355
224700.000			-34.838			-4.355
224800.000			-34.839			-4.355
224902.000			-34.840			-4.355
225001.000			-34.839			-4.355
225100.000			-34.836			-4.354
225201.000			-34.836			-4.354
225300.000			-34.837			-4.355
225400.000			-34.837			-4.355
225500.000			-34.836			-4.354
225600.000			-34.835			-4.354
225701.000			-34.835			-4.354
225801.000			-34.834			-4.354
225901.000			-34.833			-4.354
226002.000			-34.834			-4.354
226100.000			-34.834			-4.354
226200.000			-34.833			-4.354
226301.000			-34.832			-4.354
226400.000			-34.833			-4.354
226500.000			-34.832			-4.354
226601.000			-34.832			-4.354
226701.000			-34.831			-4.354
226801.000			-34.831			-4.354
226902.000			-34.830			-4.354
227000.000			-34.831			-4.354
227100.000			-34.831			-4.354
227201.000			-34.830			-4.354
227300.000			-34.828			-4.353
227400.000			-34.829			-4.354
227501.000			-34.829			-4.354
227600.000			-34.828			-4.353
227701.000			-34.828			-4.353
227802.000			-34.827			-4.353
227901.000			-34.826			-4.353
228000.000			-34.827			-4.353
228101.000			-34.826			-4.353
228200.000			-34.825			-4.353
228300.000			-34.825			-4.353
228401.000			-34.825			-4.353
228500.000			-34.825			-4.353
228600.000			-34.825			-4.353
228702.000			-34.824			-4.353
228801.000			-34.823			-4.353
228901.000			-34.823			-4.353
229000.000			-34.823			-4.353
229100.000			-34.822			-4.353
229201.000			-34.822			-4.353
229300.000			-34.822			-4.353
229400.000			-34.822			-4.353
229501.000			-34.821			-4.353
229601.000			-34.821			-4.353
229701.000			-34.820			-4.352
229802.000			-34.820			-4.352
229900.000			-34.820			-4.353
230000.000			-34.819			-4.352
230101.000			-34.819			-4.352
230200.000			-34.818			-4.352
230300.000			-34.819			-4.352
230401.000			-34.818			-4.352
230500.000			-34.816			-4.352
230601.000			-34.816			-4.352
230702.000			-34.816			-4.352
230800.000			-34.815			-4.352
230900.000			-34.815			-4.352
231001.000			-34.815			-4.352
231100.000			-34.814			-4.352
231200.000			-34.814			-4.352
231301.000			-34.814			-4.352
231400.000			-34.813			-4.352
231501.000			-34.812			-4.352
231602.000			-34.813			-4.352
231700.000			-34.812			-4.352
231800.000			-34.811			-4.351
231900.000			-34.811			-4.351
232000.000			-34.811			-4.351
232101.000			-34.810			-4.351
232200.000			-34.810			-4.351
232300.000			-34.809			-4.351
232402.000			-34.809			-4.351
232501.000			-34.809			-4.351
232601.000			-34.808			-4.351
232701.000			-34.808			-4.351
232800.000			-34.808			-4.351
232900.000			-34.807			-4.351
233001.000			-34.807			-4.351
233100.000			-34.807			-4.351
233200.000			-34.807			-4.351
233302.000			-34.807			-4.351
233401.000			-34.807			-4.351
233501.000			-34.806			-4.351
233601.000			-34.805			-4.351
233700.000			-34.805			-4.351
233800.000			-34.804			-4.350
233901.000			-34.805			-4.351
234000.000			-34.803			-4.350
234100.000			-34.803			-4.350
234201.000			-34.802			-4.350
234301.000			-34.801			-4.350
234401.000			-34.801			-4.350
234501.000			-34.802			-4.350
234600.000			-34.801			-4.350
234700.000			-34.800			-4.350
234801.000			-34.800			-4.350
234900.000			-34.800			-4.350
235000.000			-34.800			-4.350
235100.000			-34.801			-4.350
235201.000			-34.799			-4.350
235302.000			-34.798			-4.350
235401.000			-34.798			-4.350
235500.000			-34.797			-4.350
235601.000			-34.796			-4.350
235700.000			-34.797			-4.350
235800.000			-34.798			-4.350
235901.000			-34.798			-4.350
236000.000			-34.796			-4.350
236100.000			-34.795			-4.349
236202.000			-34.794			-4.349
236301.000			-34.794			-4.349
236400.000			-34.794			-4.349
236501.000			-34.795			-4.349
236600.000			-34.794			-4.349
236700.000			-34.794			-4.349
236801.000			-34.794			-4.349
236900.000			-34.793			-4.349
237000.000			-34.792			-4.349
237102.000			-34.792			-4.349
237201.000			-34.792			-4.349
237301.000			-34.792			-4.349
237401.000			-34.791			-4.349
237500.000			-34.791			-4.349
237600.000			-34.790			-4.349
237701.000			-34.791			-4.349
237800.000			-34.790			-4.349
237900.000			-34.788			-4.349
238001.000			-34.788			-4.349
238101.000			-34.788			-4.349
238202.000			-34.788			-4.348
238301.000			-34.786			-4.348
238400.000			-34.786			-4.348
238501.000			-34.786			-4.348
238600.000			-34.785			-4.348
238700.000			-34.786			-4.348
238801.000			-34.785			-4.348
238900.000			-34.785			-4.348
239000.000			-34.785			-4.348
239102.000			-34.784			-4.348
239201.000			-34.783			-4.348
239301.000			-34.783			-4.348
239401.000			-34.784			-4.348
239500.000			-34.784			-4.348
239600.000			-34.783			-4.348
239701.000			-34.782			-4.348
239800.000			-34.782			-4.348
239900.000			-34.781			-4.348
240001.000			-34.781			-4.348
240101.000			-34.781			-4.348
240201.000			-34.781			-4.348
240301.000			-34.780			-4.347
240400.000			-34.780			-4.347
240500.000			-34.779			-4.347
240601.000			-34.779			-4.347
240700.000			-34.779			-4.347
240800.000			-34.778			-4.347
240901.000			-34.778			-4.347
241000.000			-34.777			-4.347
241101.000			-34.777			-4.347
241202.000			-34.777			-4.347
241300.000			-34.776			-4.347
241400.000			-34.777			-4.347
241500.000			-34.776			-4.347
241600.000			-34.775			-4.347
241701.000			-34.774			-4.347
241800.000			-34.774			-4.347
241900.000			-34.774			-4.347
242002.000			-34.774			-4.347
242101.000			-34.773			-4.347
242201.000			-34.773			-4.347
242301.000			-34.773			-4.347
242400.000			-34.772			-4.347
242500.000			-34.772			-4.346
242601.000			-34.772			-4.346
242700.000			-34.771			-4.346
242800.000			-34.771			-4.346
242901.000			-34.771			-4.346
243001.000			-34.770			-4.346
243101.000			-34.770			-4.346
243201.000			-34.769			-4.346
243300.000			-34.769			-4.346
243400.000			-34.768			-4.346
243501.000			-34.767			-4.346
243600.000			-34.769			-4.346
243700.000			-34.768			-4.346
243801.000			-34.768			-4.346
243901.000			-34.767			-4.346
244001.000			-34.766			-4.346
244102.000			-34.766			-4.346
244200.000			-34.765			-4.346
244300.000			-34.765			-4.346
244401.000			-34.765			-4.346
244500.000			-34.764			-4.346
244600.000			-34.765			-4.346
244700.000			-34.764			-4.346
244800.000			-34.763			-4.345
244902.000			-34.763			-4.345
245001.000			-34.762			-4.345
245100.000			-34.762			-4.345
245201.000			-34.763			-4.345
245300.000			-34.763			-4.345
245400.000			-34.761			-4.345
245501.000			-34.760			-4.345
245600.000			-34.760			-4.345
245700.000			-34.759			-4.345
245802.000			-34.760			-4.345
245901.000			-34.761			-4.345
246001.000			-34.759			-4.345
246101.000			-34.758			-4.345
246200.000			-34.758			-4.345
246300.000			-34.759			-4.345
246401.000			-34.758			-4.345
246500.000			-34.757			-4.345
246600.000			-34.757			-4.345
246701.000			-34.756			-4.344
246801.000			-34.756			-4.345
246901.000			-34.755			-4.344
247001.000			-34.754			-4.344
247100.000			-34.754			-4.344
247200.000			-34.754			-4.344
247301.000			-34.754			-4.344
247400.000			-34.754			-4.344
247500.000			-34.754			-4.344
247601.000			-34.753			-4.344
247701.000			-34.752			-4.344
247802.000			-34.753			-4.344
247901.000			-34.754			-4.344
248000.000			-34.753			-4.344
248101.000			-34.752			-4.344
248200.000			-34.752			-4.344
248300.000			-34.751			-4.344
248401.000			-34.751			-4.344
248500.000			-34.750			-4.344
248600.000			-34.750			-4.344
248702.000			-34.749			-4.344
248801.000			-34.750			-4.344
248901.000			-34.749			-4.344
249001.000			-34.748			-4.344
249100.000			-34.749			-4.344
249200.000			-34.748			-4.343
249301.000			-34.748			-4.343
249400.000			-34.747			-4.343
249500.000			-34.747			-4.343
249601.000			-34.747			-4.343
249701.000			-34.747			-4.343
249801.000			-34.746			-4.343
249901.000			-34.745			-4.343
250000.000			-34.744			-4.343
250100.000			-34.744			-4.343
250201.000			-34.745			-4.343
250300.000			-34.744			-4.343
250400.000			-34.742			-4.343
250501.000			-34.742			-4.343
250601.000			-34.742			-4.343
250701.000			-34.741			-4.343
250802.000			-34.741			-4.343
250900.000			-34.740			-4.343
251000.000			-34.740			-4.343
251100.000			-34.741			-4.343
251200.000			-34.741			-4.343
251301.000			-34.741			-4.343
251400.000			-34.740			-4.343
251500.000			-34.740			-4.343
251602.000			-34.739			-4.342
251701.000			-34.739			-4.342
251800.000			-34.739			-4.342
251901.000			-34.738			-4.342
252000.000			-34.737			-4.342
252100.000			-34.735			-4.342
252201.000			-34.736			-4.342
252300.000			-34.737			-4.342
252400.000			-34.736			-4.342
252502.000			-34.736			-4.342
252601.000			-34.736			-4.342
252700.000			-34.735			-4.342
252801.000			-34.735			-4.342
252900.000			-34.734			-4.342
253000.000			-34.733			-4.342
253101.000			-34.733			-4.342
253200.000			-34.733			-4.342
253300.000			-34.733			-4.342
253402.000			-34.733			-4.342
253501.000			-34.732			-4.341
253601.000			-34.732			-4.342
253701.000			-34.732			-4.341
253800.000			-34.731			-4.341
253900.000			-34.731			-4.341
254001.000			-34.731			-4.341
254100.000			-34.730			-4.341
254200.000			-34.730			-4.341
254302.000			-34.731			-4.341
254401.000			-34.730			-4.341
254502.000			-34.729			-4.341
254600.000			-34.729			-4.341
254700.000			-34.728			-4.341
254801.000			-34.727			-4.341
254900.000			-34.726			-4.341
255000.000			-34.726			-4.341
255101.000			-34.726			-4.341
255200.000			-34.725			-4.341
255301.000			-34.725			-4.341
255402.000			-34.725			-4.341
255501.000			-34.726			-4.341
255600.000			-34.725			-4.341
255701.000			-34.725			-4.341
255800.000			-34.725			-4.341
255900.000			-34.724			-4.341
256001.000			-34.723			-4.340
256100.000			-34.722			-4.340
256201.000			-34.722			-4.340
256302.000			-34.722			-4.340
256401.000			-34.722			-4.340
256500.000			-34.722			-4.340
256601.000			-34.721			-4.340
256700.000			-34.721			-4.340
256800.000			-34.721			-4.340
256901.000			-34.722			-4.340
257000.000			-34.719			-4.340
257100.000			-34.718			-4.340
257202.000			-34.719			-4.340
257301.000			-34.720			-4.340
257400.000			-34.720			-4.340
257500.000			-34.719			-4.340
257600.000			-34.719			-4.340
257701.000			-34.719			-4.340
257800.000			-34.717			-4.340
257900.000			-34.717			-4.340
258001.000			-34.717			-4.340
258101.000			-34.716			-4.340
258201.000			-34.716			-4.339
258302.000			-34.715			-4.339
258400.000			-34.715			-4.339
258500.000			-34.714			-4.339
258601.000			-34.714			-4.339
258700.000			-34.713			-4.339
258800.000			-34.713			-4.339
258901.000			-34.713			-4.339
259000.000			-34.713			-4.339
259101.000			-34.712			-4.339
259202.000			-34.713			-4.339
259301.000			-34.712			-4.339
259400.000			-34.711			-4.339
259501.000			-34.710			-4.339
259600.000			-34.710			-4.339
259700.000			-34.710			-4.339
259801.000			-34.710			-4.339
259900.000			-34.710			-4.339
260001.000			-34.709			-4.339
260102.000			-34.709			-4.339
260201.000			-34.708			-4.338
260300.000			-34.707			-4.338
260401.000			-34.708			-4.338
260500.000			-34.708			-4.338
260600.000			-34.707			-4.338
260700.000			-34.706			-4.338
260800.000			-34.707			-4.338
260901.000			-34.707			-4.338
261001.000			-34.706			-4.338
261101.000			-34.705			-4.338
261201.000			-34.705			-4.338
261300.000			-34.706			-4.338
261400.000			-34.706			-4.338
261501.000			-34.705			-4.338
261600.000			-34.703			-4.338
261700.000			-34.703			-4.338
261801.000			-34.703			-4.338
261901.000			-34.703			-4.338
262001.000			-34.703			-4.338
262101.000			-34.702			-4.338
262200.000			-34.702			-4.338
262300.000			-34.701			-4.338
262401.000			-34.700			-4.337
262500.000			-34.700			-4.338
262600.000			-34.700			-4.338
262701.000			-34.700			-4.338
262801.000			-34.700			-4.337
262901.000			-34.699			-4.337
263002.000			-34.699			-4.337
263100.000			-34.698			-4.337
263200.000			-34.698			-4.337
263301.000			-34.698			-4.337
263400.000			-34.698			-4.337
263500.000			-34.697			-4.337
263601.000			-34.698			-4.337
263700.000			-34.697			-4.337
263802.000			-34.696			-4.337
263901.000			-34.696			-4.337
264000.000			-34.696			-4.337
264101.000			-34.696			-4.337
264200.000			-34.694			-4.337
264300.000			-34.695			-4.337
264401.000			-34.694			-4.337
264500.000			-34.694			-4.337
264600.000			-34.693			-4.337
264702.000			-34.692			-4.337
264801.000			-34.693			-4.337
264901.000			-34.693			-4.337
265001.000			-34.692			-4.337
265100.000			-34.692			-4.336
265200.000			-34.691			-4.336
265301.000			-34.691			-4.336
265400.000			-34.691			-4.336
265500.000			-34.690			-4.336
265601.000			-34.690			-4.336
265701.000			-34.691			-4.336
265801.000			-34.690			-4.336
265902.000			-34.690			-4.336
266000.000			-34.689			-4.336
266100.000			-34.688			-4.336
266201.000			-34.687			-4.336
266300.000			-34.687			-4.336
266400.000			-34.688			-4.336
266501.000			-34.688			-4.336
266600.000			-34.688			-4.336
266701.000			-34.687			-4.336
266802.000			-34.686			-4.336
266901.000			-34.685			-4.336
267000.000			-34.685			-4.336
267100.000			-34.685			-4.336
267200.000			-34.684			-4.336
267301.000			-34.683			-4.335
267400.000			-34.684			-4.335
267500.000			-34.684			-4.335
267601.000			-34.683			-4.335
267701.000			-34.683			-4.335
267801.000			-34.683			-4.335
267901.000			-34.682			-4.335
268000.000			-34.682			-4.335
268100.000			-34.682			-4.335
268201.000			-34.681			-4.335
268300.000			-34.681			-4.335
268400.000			-34.681			-4.335
268501.000			-34.679			-4.335
268600.000			-34.679			-4.335
268701.000			-34.680			-4.335
268802.000			-34.679			-4.335
268900.000			-34.679			-4.335
269000.000			-34.678			-4.335
269101.000			-34.677			-4.335
269200.000			-34.678			-4.335
269300.000			-34.678			-4.335
269401.000			-34.677			-4.335
269500.000			-34.678			-4.335
269600.000			-34.677			-4.335
269702.000			-34.676			-4.335
269801.000			-34.676			-4.335
269900.000			-34.676			-4.334
270001.000			-34.676			-4.334
270100.000			-34.675			-4.334
270200.000			-34.675			-4.334
270300.000			-34.674			-4.334
270400.000			-34.673			-4.334
270501.000			-34.673			-4.334
270601.000			-34.673			-4.334
270701.000			-34.673			-4.334
270802.000			-34.673			-4.334
270900.000			-34.673			-4.334
271000.000			-34.672			-4.334
271101.000			-34.672			-4.334
271200.000			-34.672			-4.334
271300.000			-34.671			-4.334
271401.000			-34.670			-4.334
271500.000			-34.671			-4.334
271601.000			-34.670			-4.334
271702.000			-34.670			-4.334
271800.000			-34.670			-4.334
271900.000			-34.670			-4.334
272001.000			-34.670			-4.334
272100.000			-34.669			-4.334
272200.000			-34.668			-4.334
272301.000			-34.667			-4.333
272400.000			-34.668			-4.333
272501.000			-34.667			-4.333
272602.000			-34.666			-4.333
272701.000			-34.666			-4.333
272800.000			-34.666			-4.333
272901.000			-34.667			-4.333
273000.000			-34.665			-4.333
273100.000			-34.665			-4.333
273201.000			-34.664			-4.333
273300.000			-34.664			-4.333
273400.000			-34.664			-4.333
273502.000			-34.664			-4.333
273601.000			-34.663			-4.333
273701.000			-34.662			-4.333
273800.000			-34.661			-4.333
273900.000			-34.662			-4.333
274001.000			-34.662			-4.333
274100.000			-34.661			-4.333
274200.000			-34.662			-4.333
274301.000			-34.661			-4.333
274401.000			-34.660			-4.332
274501.000			-34.659			-4.332
274601.000			-34.660			-4.332
274700.000			-34.660			-4.332
274800.000			-34.660			-4.332
274901.000			-34.659			-4.332
275000.000			-34.660			-4.332
275100.000			-34.660			-4.332
275201.000			-34.657			-4.332
275301.000			-34.656			-4.332
275401.000			-34.656			-4.332
275502.000			-34.657			-4.332
275600.000			-34.657			-4.332
275700.000			-34.657			-4.332
275801.000			-34.656			-4.332
275900.000			-34.655			-4.332
276000.000			-34.655			-4.332
276101.000			-34.654			-4.332
276200.000			-34.654			-4.332
276301.000			-34.654			-4.332
276402.000			-34.655			-4.332
276501.000			-34.655			-4.332
276600.000			-34.654			-4.332
276700.000			-34.654			-4.332
276800.000			-34.653			-4.332
276901.000			-34.652			-4.332
277000.000			-34.652			-4.331
277100.000			-34.652			-4.331
277201.000			-34.651			-4.331
277301.000			-34.651			-4.331
277401.000			-34.650			-4.331
277501.000			-34.650			-4.331
277600.000			-34.651			-4.331
277700.000			-34.651			-4.331
277801.000			-34.651			-4.331
277900.000			-34.649			-4.331
278000.000			-34.649			-4.331
278101.000			-34.648			-4.331
278201.000			-34.648			-4.331
278301.000			-34.648			-4.331
278402.000			-34.648			-4.331
278500.000			-34.648			-4.331
278600.000			-34.647			-4.331
278701.000			-34.647			-4.331
278800.000			-34.646			-4.331
278900.000			-34.645			-4.331
279001.000			-34.645			-4.331
279100.000			-34.645			-4.331
279201.000			-34.644			-4.331
279302.000			-34.643			-4.330
279401.000			-34.642			-4.330
279500.000			-34.643			-4.330
279601.000			-34.644			-4.330
279700.000			-34.644			-4.330
279800.000			-34.643			-4.330
279900.000			-34.644			-4.331
280000.000			-34.643			-4.330
280101.000			-34.642			-4.330
280201.000			-34.641			-4.330
280301.000			-34.642			-4.330
280401.000			-34.640			-4.330
280500.000			-34.640			-4.330
280600.000			-34.640			-4.330
280701.000			-34.640			-4.330
280800.000			-34.639			-4.330
280900.000			-34.639			-4.330
281001.000			-34.639			-4.330
281101.000			-34.639			-4.330
281201.000			-34.640			-4.330
281302.000			-34.639			-4.330
281400.000			-34.638			-4.330
281500.000			-34.638			-4.330
281601.000			-34.638			-4.330
281700.000			-34.636			-4.330
281800.000			-34.636			-4.330
281901.000			-34.635			-4.329
282000.000			-34.634			-4.329
282101.000			-34.635			-4.329
282202.000			-34.636			-4.329
282300.000			-34.635			-4.329
282400.000			-34.634			-4.329
282501.000			-34.634			-4.329
282600.000			-34.634			-4.329
282700.000			-34.634			-4.329
282801.000			-34.634			-4.329
282900.000			-34.632			-4.329
283002.000			-34.632			-4.329
283101.000			-34.633			-4.329
283200.000			-34.631			-4.329
283301.000			-34.631			-4.329
283400.000			-34.631			-4.329
283500.000			-34.632			-4.329
283601.000			-34.631			-4.329
283700.000			-34.632			-4.329
283800.000			-34.632			-4.329
283902.000			-34.630			-4.329
284001.000			-34.629			-4.329
284101.000			-34.629			-4.329
284201.000			-34.629			-4.329
284300.000			-34.629			-4.329
284400.000			-34.629			-4.329
284501.000			-34.629			-4.329
284600.000			-34.628			-4.329
284700.000			-34.628			-4.329
284801.000			-34.628			-4.329
284901.000			-34.627			-4.328
285001.000			-34.628			-4.329
285101.000			-34.627			-4.328
285200.000			-34.626			-4.328
285300.000			-34.626			-4.328
285401.000			-34.625			-4.328
285500.000			-34.626			-4.328
285600.000			-34.626			-4.328
285701.000			-34.624			-4.328
285801.000			-34.624			-4.328
285901.000			-34.625			-4.328
286002.000			-34.624			-4.328
286100.000			-34.624			-4.328
286200.000			-34.623			-4.328
286300.000			-34.623			-4.328
286400.000			-34.622			-4.328
286501.000			-34.622			-4.328
286600.000			-34.622			-4.328
286700.000			-34.622			-4.328
286802.000			-34.622			-4.328
286901.000			-34.622			-4.328
287000.000			-34.622			-4.328
287101.000			-34.621			-4.328
287200.000			-34.620			-4.328
287300.000			-34.621			-4.328
287401.000			-34.620			-4.327
287500.000			-34.618			-4.327
287600.000			-34.617			-4.327
287702.000			-34.617			-4.327
287801.000			-34.618			-4.327
287901.000			-34.619			-4.327
288001.000			-34.618			-4.327
288100.000			-34.616			-4.327
288200.000			-34.617			-4.327
288301.000			-34.618			-4.327
288400.000			-34.618			-4.327
288500.000			-34.617			-4.327
288601.000			-34.616			-4.327
288701.000			-34.615			-4.327
288801.000			-34.614			-4.327
288901.000			-34.615			-4.327
289000.000			-34.614			-4.327
289100.000			-34.613			-4.327
289201.000			-34.614			-4.327
289300.000			-34.614			-4.327
289400.000			-34.614			-4.327
289500.000			-34.612			-4.327
289601.000			-34.612			-4.326
289702.000			-34.612			-4.326
289801.000			-34.611			-4.326
289900.000			-34.611			-4.326
290001.000			-34.610			-4.326
290100.000			-34.611			-4.326
290200.000			-34.611			-4.326
290301.000			-34.611			-4.326
290400.000			-34.609			-4.326
290500.000			-34.609			-4.326
290602.000			-34.609			-4.326
290701.000			-34.609			-4.326
290800.000			-34.609			-4.326
290901.000			-34.608			-4.326
291000.000			-34.607			-4.326
291100.000			-34.608			-4.326
291201.000			-34.608			-4.326
291300.000			-34.607			-4.326
291400.000			-34.606			-4.326
291502.000			-34.606			-4.326
291601.000			-34.606			-4.326
291700.000			-34.606			-4.326
291801.000			-34.606			-4.326
291900.000			-34.605			-4.326
292000.000			-34.605			-4.326
292101.000			-34.606			-4.326
292200.000			-34.604			-4.326
292300.000			-34.603			-4.325
292402.000			-34.604			-4.325
292501.000			-34.604			-4.325
292600.000			-34.603			-4.325
292700.000			-34.603			-4.325
292800.000			-34.603			-4.325
292901.000			-34.603			-4.325
293000.000			-34.603			-4.325
293100.000			-34.602			-4.325
293201.000			-34.601			-4.325
293301.000			-34.601			-4.325
293401.000			-34.600			-4.325
293502.000			-34.599			-4.325
293600.000			-34.599			-4.325
293700.000			-34.600			-4.325
293801.000			-34.601			-4.325
293900.000			-34.600			-4.325
294000.000			-34.600			-4.325
294101.000			-34.600			-4.325
294200.000			-34.600			-4.325
294301.000			-34.599			-4.325
294402.000			-34.598			-4.325
294500.000			-34.598			-4.325
294600.000			-34.597			-4.325
294701.000			-34.596			-4.325
294800.000			-34.597			-4.325
294900.000			-34.595			-4.324
295001.000			-34.595			-4.324
295100.000			-34.596			-4.324
295201.000			-34.595			-4.324
295302.000			-34.594			-4.324
295401.000			-34.595			-4.324
295500.000			-34.594			-4.324
295601.000			-34.594			-4.324
295700.000			-34.594			-4.324
295800.000			-34.593			-4.324
295900.000			-34.593			-4.324
296000.000			-34.593			-4.324
296101.000			-34.593			-4.324
296201.000			-34.592			-4.324
296301.000			-34.593			-4.324
296402.000			-34.591			-4.324
296500.000			-34.591			-4.324
296600.000			-34.593			-4.324
296701.000			-34.591			-4.324
296800.000			-34.590			-4.324
296900.000			-34.591			-4.324
297001.000			-34.591			-4.324
297100.000			-34.590			-4.324
297201.000			-34.589			-4.324
297302.000			-34.590			-4.324
297401.000			-34.590			-4.324
297500.000			-34.589			-4.324
297601.000			-34.589			-4.324
297700.000			-34.588			-4.323
297800.000			-34.588			-4.323
297901.000			-34.589			-4.324
298000.000			-34.588			-4.323
298100.000			-34.587			-4.323
298202.000			-34.587			-4.323
298301.000			-34.587			-4.323
298401.000			-34.586			-4.323
298501.000			-34.586			-4.323
298600.000			-34.586			-4.323
298700.000			-34.585			-4.323
298801.000			-34.584			-4.323
298900.000			-34.583			-4.323
299000.000			-34.583			-4.323
299100.000			-34.583			-4.323
299201.000			-34.583			-4.323
299302.000			-34.583			-4.323
299401.000			-34.582			-4.323
299500.000			-34.583			-4.323
299601.000			-34.582			-4.323
299700.000			-34.582			-4.323
299800.000			-34.581			-4.323
299901.000			-34.581			-4.323
