# Acquired on 09/01/2024 12:54:16 
# SPIDER: Creep_8mm_07714532C-2
# CREEP MEASUREMENT

# time [ms]		force [N]		stiffness [N/mm]
0.000			-22.824			-2.853
100.000			-24.309			-3.039
200.000			-24.991			-3.124
302.000			-25.016			-3.127
400.000			-24.916			-3.115
500.000			-24.837			-3.105
601.000			-24.771			-3.096
700.000			-24.713			-3.089
800.000			-24.661			-3.083
902.000			-24.616			-3.077
1001.000			-24.538			-3.067
1100.000			-24.503			-3.063
1201.000			-24.472			-3.059
1300.000			-24.441			-3.055
1400.000			-24.413			-3.052
1501.000			-24.388			-3.048
1600.000			-24.361			-3.045
1702.000			-24.315			-3.039
1801.000			-24.293			-3.037
1900.000			-24.272			-3.034
2001.000			-24.252			-3.032
2100.000			-24.233			-3.029
2200.000			-24.215			-3.027
2301.000			-24.197			-3.025
2401.000			-24.163			-3.020
2501.000			-24.148			-3.019
2601.000			-24.134			-3.017
2700.000			-24.119			-3.015
2800.000			-24.104			-3.013
2901.000			-24.088			-3.011
3000.000			-24.076			-3.009
3100.000			-24.063			-3.008
3202.000			-24.036			-3.005
3301.000			-24.025			-3.003
3400.000			-24.012			-3.002
3501.000			-24.001			-3.000
3600.000			-23.990			-2.999
3700.000			-23.979			-2.997
3801.000			-23.968			-2.996
3900.000			-23.947			-2.993
4001.000			-23.937			-2.992
4102.000			-23.927			-2.991
4200.000			-23.918			-2.990
4300.000			-23.908			-2.989
4401.000			-23.898			-2.987
4500.000			-23.889			-2.986
4600.000			-23.872			-2.984
4702.000			-23.862			-2.983
4801.000			-23.854			-2.982
4900.000			-23.845			-2.981
5000.000			-23.838			-2.980
5100.000			-23.830			-2.979
5201.000			-23.821			-2.978
5300.000			-23.806			-2.976
5400.000			-23.798			-2.975
5502.000			-23.791			-2.974
5601.000			-23.783			-2.973
5700.000			-23.776			-2.972
5801.000			-23.770			-2.971
5900.000			-23.762			-2.970
6000.000			-23.755			-2.969
6101.000			-23.741			-2.968
6200.000			-23.735			-2.967
6301.000			-23.729			-2.966
6402.000			-23.722			-2.965
6500.000			-23.715			-2.964
6600.000			-23.709			-2.964
6701.000			-23.703			-2.963
6800.000			-23.690			-2.961
6900.000			-23.684			-2.960
7001.000			-23.679			-2.960
7101.000			-23.673			-2.959
7201.000			-23.668			-2.958
7301.000			-23.662			-2.958
7400.000			-23.655			-2.957
7500.000			-23.645			-2.956
7601.000			-23.639			-2.955
7700.000			-23.633			-2.954
7801.000			-23.627			-2.953
7902.000			-23.622			-2.953
8000.000			-23.618			-2.952
8100.000			-23.613			-2.952
8200.000			-23.602			-2.950
8300.000			-23.598			-2.950
8401.000			-23.593			-2.949
8500.000			-23.588			-2.949
8601.000			-23.584			-2.948
8702.000			-23.578			-2.947
8800.000			-23.572			-2.947
8900.000			-23.568			-2.946
9001.000			-23.559			-2.945
9100.000			-23.555			-2.944
9200.000			-23.549			-2.944
9301.000			-23.545			-2.943
9401.000			-23.540			-2.943
9501.000			-23.536			-2.942
9601.000			-23.532			-2.941
9700.000			-23.523			-2.940
9800.000			-23.518			-2.940
9901.000			-23.515			-2.939
10000.000			-23.510			-2.939
10100.000			-23.505			-2.938
10202.000			-23.501			-2.938
10300.000			-23.497			-2.937
10400.000			-23.490			-2.936
10501.000			-23.486			-2.936
10600.000			-23.482			-2.935
10700.000			-23.478			-2.935
10801.000			-23.474			-2.934
10901.000			-23.469			-2.934
11001.000			-23.465			-2.933
11101.000			-23.458			-2.932
11200.000			-23.454			-2.932
11300.000			-23.450			-2.931
11400.000			-23.447			-2.931
11500.000			-23.443			-2.930
11601.000			-23.440			-2.930
11701.000			-23.437			-2.930
11801.000			-23.433			-2.929
11901.000			-23.425			-2.928
12000.000			-23.422			-2.928
12100.000			-23.417			-2.927
12201.000			-23.415			-2.927
12300.000			-23.412			-2.926
12400.000			-23.408			-2.926
12502.000			-23.405			-2.926
12601.000			-23.397			-2.925
12700.000			-23.394			-2.924
12801.000			-23.391			-2.924
12900.000			-23.388			-2.923
13000.000			-23.385			-2.923
13101.000			-23.382			-2.923
13200.000			-23.378			-2.922
13301.000			-23.373			-2.922
13402.000			-23.370			-2.921
13500.000			-23.366			-2.921
13600.000			-23.363			-2.920
13701.000			-23.360			-2.920
13800.000			-23.357			-2.920
13900.000			-23.353			-2.919
14001.000			-23.348			-2.919
14101.000			-23.347			-2.918
14201.000			-23.342			-2.918
14301.000			-23.339			-2.917
14400.000			-23.336			-2.917
14500.000			-23.333			-2.917
14600.000			-23.331			-2.916
14700.000			-23.327			-2.916
14802.000			-23.321			-2.915
14901.000			-23.319			-2.915
15001.000			-23.316			-2.914
15101.000			-23.313			-2.914
15200.000			-23.310			-2.914
15300.000			-23.306			-2.913
15401.000			-23.304			-2.913
15500.000			-23.299			-2.912
15601.000			-23.296			-2.912
15702.000			-23.293			-2.912
15800.000			-23.291			-2.911
15900.000			-23.289			-2.911
16001.000			-23.286			-2.911
16100.000			-23.282			-2.910
16200.000			-23.277			-2.910
16301.000			-23.275			-2.909
16401.000			-23.272			-2.909
16501.000			-23.270			-2.909
16601.000			-23.268			-2.908
16700.000			-23.265			-2.908
16800.000			-23.263			-2.908
16901.000			-23.258			-2.907
17000.000			-23.255			-2.907
17100.000			-23.252			-2.907
17202.000			-23.250			-2.906
17301.000			-23.247			-2.906
17401.000			-23.245			-2.906
17501.000			-23.243			-2.905
17600.000			-23.240			-2.905
17700.000			-23.235			-2.904
17800.000			-23.232			-2.904
17900.000			-23.230			-2.904
18002.000			-23.227			-2.903
18101.000			-23.225			-2.903
18200.000			-23.223			-2.903
18301.000			-23.220			-2.903
18400.000			-23.216			-2.902
18500.000			-23.214			-2.902
18601.000			-23.211			-2.901
18700.000			-23.208			-2.901
18801.000			-23.206			-2.901
18902.000			-23.205			-2.901
19000.000			-23.202			-2.900
19100.000			-23.199			-2.900
19201.000			-23.197			-2.900
19300.000			-23.193			-2.899
19400.000			-23.190			-2.899
19501.000			-23.189			-2.899
19601.000			-23.186			-2.898
19701.000			-23.184			-2.898
19801.000			-23.179			-2.897
19900.000			-23.178			-2.897
20000.000			-23.176			-2.897
20101.000			-23.173			-2.897
20200.000			-23.171			-2.896
20300.000			-23.168			-2.896
20402.000			-23.166			-2.896
20501.000			-23.165			-2.896
20600.000			-23.161			-2.895
20701.000			-23.160			-2.895
20800.000			-23.157			-2.895
20900.000			-23.154			-2.894
21000.000			-23.153			-2.894
21100.000			-23.150			-2.894
21202.000			-23.148			-2.894
21301.000			-23.145			-2.893
21400.000			-23.142			-2.893
21501.000			-23.141			-2.893
21600.000			-23.138			-2.892
21700.000			-23.136			-2.892
21801.000			-23.134			-2.892
21901.000			-23.132			-2.892
22001.000			-23.129			-2.891
22101.000			-23.127			-2.891
22200.000			-23.126			-2.891
22300.000			-23.123			-2.890
22401.000			-23.121			-2.890
22500.000			-23.120			-2.890
22600.000			-23.117			-2.890
22702.000			-23.113			-2.889
22801.000			-23.111			-2.889
22900.000			-23.109			-2.889
23001.000			-23.108			-2.889
23100.000			-23.106			-2.888
23200.000			-23.103			-2.888
23301.000			-23.101			-2.888
23400.000			-23.100			-2.888
23501.000			-23.097			-2.887
23602.000			-23.095			-2.887
23700.000			-23.093			-2.887
23800.000			-23.091			-2.886
23901.000			-23.089			-2.886
24000.000			-23.087			-2.886
24100.000			-23.086			-2.886
24202.000			-23.083			-2.885
24301.000			-23.080			-2.885
24401.000			-23.078			-2.885
24500.000			-23.076			-2.885
24600.000			-23.075			-2.884
24701.000			-23.072			-2.884
24800.000			-23.070			-2.884
24900.000			-23.067			-2.883
25002.000			-23.066			-2.883
25101.000			-23.064			-2.883
25200.000			-23.061			-2.883
25301.000			-23.060			-2.882
25400.000			-23.059			-2.882
25500.000			-23.058			-2.882
25601.000			-23.056			-2.882
25700.000			-23.051			-2.881
25801.000			-23.049			-2.881
25902.000			-23.047			-2.881
26000.000			-23.047			-2.881
26100.000			-23.046			-2.881
26201.000			-23.044			-2.880
26300.000			-23.043			-2.880
26400.000			-23.039			-2.880
26501.000			-23.038			-2.880
26601.000			-23.036			-2.880
26701.000			-23.034			-2.879
26801.000			-23.033			-2.879
26900.000			-23.031			-2.879
27000.000			-23.029			-2.879
27101.000			-23.026			-2.878
27200.000			-23.025			-2.878
27300.000			-23.023			-2.878
27402.000			-23.021			-2.878
27501.000			-23.019			-2.877
27601.000			-23.018			-2.877
27700.000			-23.016			-2.877
27800.000			-23.013			-2.877
27901.000			-23.011			-2.876
28000.000			-23.010			-2.876
28101.000			-23.009			-2.876
28202.000			-23.007			-2.876
28300.000			-23.006			-2.876
28400.000			-23.003			-2.875
28501.000			-23.002			-2.875
28600.000			-22.999			-2.875
28700.000			-22.998			-2.875
28801.000			-22.997			-2.875
28901.000			-22.995			-2.874
29001.000			-22.992			-2.874
29102.000			-22.991			-2.874
29200.000			-22.990			-2.874
29300.000			-22.986			-2.873
29401.000			-22.984			-2.873
29500.000			-22.983			-2.873
29600.000			-22.983			-2.873
29701.000			-22.982			-2.873
29801.000			-22.980			-2.873
29901.000			-22.979			-2.872
30001.000			-22.976			-2.872
30100.000			-22.974			-2.872
30200.000			-22.973			-2.872
30301.000			-22.972			-2.871
30400.000			-22.969			-2.871
30500.000			-22.968			-2.871
30602.000			-22.967			-2.871
30701.000			-22.964			-2.870
30801.000			-22.962			-2.870
30900.000			-22.961			-2.870
31000.000			-22.960			-2.870
31101.000			-22.958			-2.870
31200.000			-22.955			-2.869
31300.000			-22.954			-2.869
31402.000			-22.954			-2.869
31501.000			-22.952			-2.869
31600.000			-22.949			-2.869
31701.000			-22.949			-2.869
31800.000			-22.947			-2.868
31900.000			-22.945			-2.868
32001.000			-22.943			-2.868
32100.000			-22.942			-2.868
32201.000			-22.939			-2.867
32302.000			-22.937			-2.867
32400.000			-22.937			-2.867
32500.000			-22.936			-2.867
32601.000			-22.934			-2.867
32700.000			-22.933			-2.867
32800.000			-22.932			-2.867
32901.000			-22.929			-2.866
33001.000			-22.928			-2.866
33101.000			-22.926			-2.866
33201.000			-22.925			-2.866
33300.000			-22.923			-2.865
33400.000			-22.922			-2.865
33501.000			-22.921			-2.865
33600.000			-22.918			-2.865
33702.000			-22.917			-2.865
33801.000			-22.916			-2.865
33901.000			-22.916			-2.864
34001.000			-22.914			-2.864
34100.000			-22.913			-2.864
34200.000			-22.912			-2.864
34301.000			-22.908			-2.863
34400.000			-22.907			-2.863
34500.000			-22.905			-2.863
34602.000			-22.904			-2.863
34701.000			-22.903			-2.863
34800.000			-22.902			-2.863
34901.000			-22.901			-2.863
35000.000			-22.899			-2.862
35100.000			-22.897			-2.862
35201.000			-22.895			-2.862
35301.000			-22.894			-2.862
35401.000			-22.893			-2.862
35501.000			-22.892			-2.861
35600.000			-22.890			-2.861
35700.000			-22.888			-2.861
35801.000			-22.887			-2.861
35900.000			-22.886			-2.861
36000.000			-22.885			-2.861
36101.000			-22.884			-2.860
36201.000			-22.882			-2.860
36301.000			-22.881			-2.860
36401.000			-22.879			-2.860
36500.000			-22.876			-2.860
36600.000			-22.875			-2.859
36701.000			-22.873			-2.859
36800.000			-22.872			-2.859
36900.000			-22.872			-2.859
37002.000			-22.871			-2.859
37101.000			-22.870			-2.859
37201.000			-22.868			-2.859
37300.000			-22.867			-2.858
37400.000			-22.866			-2.858
37501.000			-22.864			-2.858
37600.000			-22.862			-2.858
37700.000			-22.861			-2.858
37802.000			-22.861			-2.858
37901.000			-22.859			-2.857
38000.000			-22.856			-2.857
38101.000			-22.856			-2.857
38200.000			-22.855			-2.857
38300.000			-22.853			-2.857
38401.000			-22.851			-2.856
38500.000			-22.851			-2.856
38601.000			-22.850			-2.856
38702.000			-22.847			-2.856
38800.000			-22.847			-2.856
38900.000			-22.845			-2.856
39001.000			-22.844			-2.856
39100.000			-22.843			-2.855
39200.000			-22.842			-2.855
39301.000			-22.841			-2.855
39401.000			-22.838			-2.855
39501.000			-22.837			-2.855
39601.000			-22.836			-2.855
39700.000			-22.836			-2.854
39800.000			-22.835			-2.854
39901.000			-22.834			-2.854
40000.000			-22.833			-2.854
40100.000			-22.830			-2.854
40202.000			-22.828			-2.854
40301.000			-22.828			-2.854
40401.000			-22.827			-2.853
40500.000			-22.826			-2.853
40600.000			-22.825			-2.853
40701.000			-22.823			-2.853
40800.000			-22.821			-2.853
40900.000			-22.821			-2.853
41002.000			-22.819			-2.852
41101.000			-22.818			-2.852
41200.000			-22.817			-2.852
41301.000			-22.816			-2.852
41400.000			-22.814			-2.852
41500.000			-22.813			-2.852
41601.000			-22.812			-2.851
41700.000			-22.811			-2.851
41801.000			-22.809			-2.851
41902.000			-22.807			-2.851
42000.000			-22.807			-2.851
42100.000			-22.806			-2.851
42201.000			-22.804			-2.851
42300.000			-22.803			-2.850
42400.000			-22.802			-2.850
42501.000			-22.800			-2.850
42601.000			-22.800			-2.850
42701.000			-22.800			-2.850
42801.000			-22.799			-2.850
42900.000			-22.798			-2.850
43000.000			-22.794			-2.849
43101.000			-22.794			-2.849
43200.000			-22.793			-2.849
43300.000			-22.792			-2.849
43402.000			-22.791			-2.849
43501.000			-22.790			-2.849
43601.000			-22.789			-2.849
43700.000			-22.788			-2.849
43800.000			-22.785			-2.848
43901.000			-22.784			-2.848
44000.000			-22.784			-2.848
44100.000			-22.784			-2.848
44202.000			-22.782			-2.848
44301.000			-22.781			-2.848
44400.000			-22.779			-2.847
44501.000			-22.777			-2.847
44600.000			-22.776			-2.847
44700.000			-22.775			-2.847
44801.000			-22.775			-2.847
44900.000			-22.774			-2.847
45001.000			-22.773			-2.847
45102.000			-22.772			-2.847
45200.000			-22.769			-2.846
45300.000			-22.769			-2.846
45401.000			-22.767			-2.846
45500.000			-22.767			-2.846
45600.000			-22.766			-2.846
45701.000			-22.766			-2.846
45801.000			-22.765			-2.846
45901.000			-22.762			-2.845
46001.000			-22.761			-2.845
46100.000			-22.760			-2.845
46200.000			-22.759			-2.845
46301.000			-22.759			-2.845
46400.000			-22.757			-2.845
46500.000			-22.756			-2.845
46602.000			-22.755			-2.844
46701.000			-22.753			-2.844
46801.000			-22.752			-2.844
46900.000			-22.751			-2.844
47000.000			-22.750			-2.844
47101.000			-22.750			-2.844
47200.000			-22.749			-2.844
47300.000			-22.748			-2.844
47402.000			-22.746			-2.843
47501.000			-22.744			-2.843
47600.000			-22.743			-2.843
47701.000			-22.742			-2.843
47800.000			-22.741			-2.843
47900.000			-22.740			-2.843
48001.000			-22.739			-2.842
48100.000			-22.738			-2.842
48201.000			-22.736			-2.842
48302.000			-22.735			-2.842
48400.000			-22.735			-2.842
48500.000			-22.735			-2.842
48601.000			-22.733			-2.842
48700.000			-22.732			-2.842
48800.000			-22.731			-2.841
48901.000			-22.730			-2.841
49001.000			-22.728			-2.841
49101.000			-22.727			-2.841
49201.000			-22.728			-2.841
49300.000			-22.727			-2.841
49400.000			-22.725			-2.841
49501.000			-22.724			-2.840
49600.000			-22.723			-2.840
49700.000			-22.723			-2.840
49802.000			-22.721			-2.840
49901.000			-22.720			-2.840
50001.000			-22.720			-2.840
50100.000			-22.719			-2.840
50200.000			-22.718			-2.840
50301.000			-22.717			-2.840
50400.000			-22.716			-2.839
50500.000			-22.715			-2.839
50602.000			-22.714			-2.839
50701.000			-22.713			-2.839
50800.000			-22.711			-2.839
50901.000			-22.710			-2.839
51000.000			-22.709			-2.839
51100.000			-22.708			-2.839
51201.000			-22.707			-2.838
51300.000			-22.706			-2.838
51401.000			-22.705			-2.838
51502.000			-22.704			-2.838
51600.000			-22.703			-2.838
51700.000			-22.702			-2.838
51801.000			-22.701			-2.838
51900.000			-22.699			-2.837
52000.000			-22.700			-2.837
52101.000			-22.698			-2.837
52201.000			-22.698			-2.837
52301.000			-22.696			-2.837
52401.000			-22.695			-2.837
52500.000			-22.694			-2.837
52600.000			-22.693			-2.837
52701.000			-22.692			-2.837
52800.000			-22.692			-2.836
52900.000			-22.691			-2.836
53002.000			-22.689			-2.836
53101.000			-22.689			-2.836
53201.000			-22.688			-2.836
53300.000			-22.685			-2.836
53400.000			-22.685			-2.836
53501.000			-22.686			-2.836
53600.000			-22.684			-2.835
53700.000			-22.683			-2.835
53802.000			-22.682			-2.835
53901.000			-22.680			-2.835
54000.000			-22.679			-2.835
54101.000			-22.679			-2.835
54200.000			-22.678			-2.835
54300.000			-22.676			-2.835
54401.000			-22.675			-2.834
54500.000			-22.675			-2.834
54601.000			-22.674			-2.834
54702.000			-22.673			-2.834
54800.000			-22.673			-2.834
54900.000			-22.671			-2.834
55001.000			-22.670			-2.834
55100.000			-22.669			-2.834
55200.000			-22.668			-2.834
55301.000			-22.666			-2.833
55401.000			-22.667			-2.833
55501.000			-22.667			-2.833
55601.000			-22.665			-2.833
55700.000			-22.664			-2.833
55800.000			-22.664			-2.833
55901.000			-22.662			-2.833
56000.000			-22.661			-2.833
56100.000			-22.659			-2.832
56202.000			-22.660			-2.832
56301.000			-22.659			-2.832
56401.000			-22.657			-2.832
56500.000			-22.656			-2.832
56600.000			-22.656			-2.832
56701.000			-22.655			-2.832
56800.000			-22.654			-2.832
56900.000			-22.654			-2.832
57002.000			-22.653			-2.832
57101.000			-22.651			-2.831
57200.000			-22.650			-2.831
57301.000			-22.649			-2.831
57400.000			-22.648			-2.831
57500.000			-22.647			-2.831
57601.000			-22.647			-2.831
57700.000			-22.645			-2.831
57801.000			-22.644			-2.830
57902.000			-22.644			-2.830
58000.000			-22.645			-2.831
58100.000			-22.644			-2.830
58201.000			-22.641			-2.830
58300.000			-22.640			-2.830
58400.000			-22.640			-2.830
58501.000			-22.640			-2.830
58601.000			-22.638			-2.830
58701.000			-22.637			-2.830
58801.000			-22.637			-2.830
58900.000			-22.636			-2.829
59000.000			-22.635			-2.829
59101.000			-22.633			-2.829
59200.000			-22.632			-2.829
59300.000			-22.632			-2.829
59402.000			-22.631			-2.829
59501.000			-22.630			-2.829
59601.000			-22.628			-2.829
59700.000			-22.628			-2.828
59800.000			-22.627			-2.828
59901.000			-22.626			-2.828
60000.000			-22.624			-2.828
60100.000			-22.623			-2.828
60202.000			-22.623			-2.828
60301.000			-22.622			-2.828
60400.000			-22.622			-2.828
60501.000			-22.623			-2.828
60600.000			-22.622			-2.828
60700.000			-22.620			-2.828
60801.000			-22.619			-2.827
60900.000			-22.617			-2.827
61001.000			-22.615			-2.827
61102.000			-22.616			-2.827
61200.000			-22.615			-2.827
61300.000			-22.613			-2.827
61401.000			-22.614			-2.827
61500.000			-22.613			-2.827
61600.000			-22.613			-2.827
61701.000			-22.612			-2.826
61801.000			-22.611			-2.826
61901.000			-22.609			-2.826
62001.000			-22.608			-2.826
62100.000			-22.608			-2.826
62200.000			-22.606			-2.826
62301.000			-22.606			-2.826
62400.000			-22.605			-2.826
62500.000			-22.605			-2.826
62602.000			-22.604			-2.825
62701.000			-22.602			-2.825
62801.000			-22.602			-2.825
62900.000			-22.601			-2.825
63000.000			-22.600			-2.825
63101.000			-22.599			-2.825
63200.000			-22.599			-2.825
63301.000			-22.597			-2.825
63402.000			-22.597			-2.825
63500.000			-22.597			-2.825
63600.000			-22.595			-2.824
63701.000			-22.594			-2.824
63800.000			-22.594			-2.824
63900.000			-22.594			-2.824
64001.000			-22.592			-2.824
64101.000			-22.591			-2.824
64201.000			-22.590			-2.824
64301.000			-22.588			-2.823
64400.000			-22.588			-2.823
64500.000			-22.588			-2.824
64601.000			-22.587			-2.823
64700.000			-22.587			-2.823
64800.000			-22.587			-2.823
64901.000			-22.584			-2.823
65001.000			-22.583			-2.823
65101.000			-22.584			-2.823
65201.000			-22.582			-2.823
65300.000			-22.581			-2.823
65400.000			-22.582			-2.823
65501.000			-22.581			-2.823
65600.000			-22.580			-2.822
65700.000			-22.578			-2.822
65802.000			-22.578			-2.822
65901.000			-22.578			-2.822
66001.000			-22.576			-2.822
66100.000			-22.575			-2.822
66200.000			-22.574			-2.822
66301.000			-22.573			-2.822
66400.000			-22.572			-2.821
66500.000			-22.572			-2.822
66602.000			-22.572			-2.822
66701.000			-22.572			-2.821
66800.000			-22.571			-2.821
66901.000			-22.569			-2.821
67000.000			-22.569			-2.821
67100.000			-22.568			-2.821
67201.000			-22.568			-2.821
67300.000			-22.567			-2.821
67401.000			-22.565			-2.821
67502.000			-22.564			-2.821
67601.000			-22.564			-2.820
67700.000			-22.563			-2.820
67801.000			-22.563			-2.820
67900.000			-22.562			-2.820
68000.000			-22.562			-2.820
68101.000			-22.561			-2.820
68200.000			-22.560			-2.820
68301.000			-22.559			-2.820
68402.000			-22.559			-2.820
68500.000			-22.557			-2.820
68600.000			-22.557			-2.820
68701.000			-22.556			-2.820
68800.000			-22.555			-2.819
68900.000			-22.554			-2.819
69000.000			-22.553			-2.819
69101.000			-22.553			-2.819
69202.000			-22.552			-2.819
69300.000			-22.551			-2.819
69400.000			-22.551			-2.819
69501.000			-22.551			-2.819
69600.000			-22.550			-2.819
69700.000			-22.549			-2.819
69801.000			-22.549			-2.819
69901.000			-22.548			-2.818
70001.000			-22.547			-2.818
70101.000			-22.546			-2.818
70200.000			-22.545			-2.818
70300.000			-22.544			-2.818
70401.000			-22.543			-2.818
70500.000			-22.543			-2.818
70600.000			-22.543			-2.818
70702.000			-22.541			-2.818
70801.000			-22.540			-2.818
70900.000			-22.540			-2.817
71001.000			-22.539			-2.817
71100.000			-22.538			-2.817
71200.000			-22.538			-2.817
71301.000			-22.538			-2.817
71400.000			-22.537			-2.817
71500.000			-22.536			-2.817
71602.000			-22.535			-2.817
71701.000			-22.535			-2.817
71800.000			-22.533			-2.817
71901.000			-22.533			-2.817
72000.000			-22.532			-2.816
72100.000			-22.532			-2.816
72200.000			-22.531			-2.816
72301.000			-22.530			-2.816
72402.000			-22.529			-2.816
72501.000			-22.529			-2.816
72600.000			-22.528			-2.816
72701.000			-22.528			-2.816
72800.000			-22.528			-2.816
72900.000			-22.526			-2.816
73001.000			-22.525			-2.816
73101.000			-22.525			-2.816
73201.000			-22.524			-2.815
73302.000			-22.523			-2.815
73400.000			-22.522			-2.815
73500.000			-22.523			-2.815
73601.000			-22.522			-2.815
73700.000			-22.520			-2.815
73800.000			-22.519			-2.815
73902.000			-22.519			-2.815
74001.000			-22.518			-2.815
74101.000			-22.517			-2.815
74201.000			-22.515			-2.814
74300.000			-22.515			-2.814
74400.000			-22.515			-2.814
74501.000			-22.514			-2.814
74600.000			-22.513			-2.814
74700.000			-22.512			-2.814
74802.000			-22.512			-2.814
74901.000			-22.511			-2.814
75000.000			-22.510			-2.814
75101.000			-22.510			-2.814
75200.000			-22.510			-2.814
75300.000			-22.509			-2.814
75400.000			-22.508			-2.814
75500.000			-22.508			-2.813
75602.000			-22.506			-2.813
75701.000			-22.505			-2.813
75800.000			-22.506			-2.813
75901.000			-22.505			-2.813
76000.000			-22.503			-2.813
76100.000			-22.503			-2.813
76201.000			-22.503			-2.813
76301.000			-22.502			-2.813
76401.000			-22.500			-2.813
76502.000			-22.499			-2.812
76600.000			-22.499			-2.812
76700.000			-22.498			-2.812
76801.000			-22.499			-2.812
76900.000			-22.498			-2.812
77000.000			-22.497			-2.812
77101.000			-22.495			-2.812
77201.000			-22.496			-2.812
77301.000			-22.495			-2.812
77401.000			-22.494			-2.812
77500.000			-22.493			-2.812
77600.000			-22.493			-2.812
77701.000			-22.492			-2.811
77800.000			-22.491			-2.811
77900.000			-22.490			-2.811
78002.000			-22.489			-2.811
78101.000			-22.489			-2.811
78200.000			-22.489			-2.811
78301.000			-22.489			-2.811
78400.000			-22.488			-2.811
78500.000			-22.486			-2.811
78600.000			-22.486			-2.811
78700.000			-22.486			-2.811
78801.000			-22.485			-2.811
78901.000			-22.485			-2.811
79001.000			-22.485			-2.811
79101.000			-22.483			-2.810
79200.000			-22.481			-2.810
79300.000			-22.481			-2.810
79401.000			-22.480			-2.810
79500.000			-22.480			-2.810
79600.000			-22.480			-2.810
79702.000			-22.480			-2.810
79801.000			-22.478			-2.810
79900.000			-22.479			-2.810
80001.000			-22.478			-2.810
80100.000			-22.478			-2.810
80200.000			-22.476			-2.810
80301.000			-22.476			-2.809
80400.000			-22.475			-2.809
80501.000			-22.474			-2.809
80602.000			-22.474			-2.809
80700.000			-22.472			-2.809
80800.000			-22.472			-2.809
80901.000			-22.471			-2.809
81000.000			-22.471			-2.809
81100.000			-22.472			-2.809
81201.000			-22.470			-2.809
81301.000			-22.470			-2.809
81401.000			-22.469			-2.809
81501.000			-22.467			-2.808
81600.000			-22.467			-2.808
81700.000			-22.467			-2.808
81800.000			-22.465			-2.808
81900.000			-22.466			-2.808
82001.000			-22.465			-2.808
82100.000			-22.464			-2.808
82201.000			-22.463			-2.808
82302.000			-22.462			-2.808
82400.000			-22.461			-2.808
82500.000			-22.461			-2.808
82601.000			-22.461			-2.808
82700.000			-22.460			-2.808
82800.000			-22.460			-2.807
82901.000			-22.459			-2.807
83001.000			-22.458			-2.807
83101.000			-22.458			-2.807
83201.000			-22.457			-2.807
83300.000			-22.456			-2.807
83400.000			-22.455			-2.807
83501.000			-22.455			-2.807
83600.000			-22.454			-2.807
83700.000			-22.453			-2.807
83802.000			-22.453			-2.807
83901.000			-22.453			-2.807
84000.000			-22.453			-2.807
84101.000			-22.451			-2.806
84200.000			-22.450			-2.806
84300.000			-22.451			-2.806
84401.000			-22.450			-2.806
84500.000			-22.449			-2.806
84601.000			-22.447			-2.806
84702.000			-22.447			-2.806
84800.000			-22.447			-2.806
84900.000			-22.447			-2.806
85000.000			-22.445			-2.806
85100.000			-22.445			-2.806
85201.000			-22.445			-2.806
85300.000			-22.444			-2.806
85401.000			-22.443			-2.805
85502.000			-22.442			-2.805
85600.000			-22.441			-2.805
85700.000			-22.441			-2.805
85801.000			-22.441			-2.805
85900.000			-22.441			-2.805
86000.000			-22.441			-2.805
86101.000			-22.440			-2.805
86201.000			-22.439			-2.805
86301.000			-22.438			-2.805
86401.000			-22.437			-2.805
86500.000			-22.436			-2.804
86600.000			-22.437			-2.805
86701.000			-22.436			-2.804
86800.000			-22.434			-2.804
86900.000			-22.433			-2.804
87002.000			-22.433			-2.804
87101.000			-22.433			-2.804
87201.000			-22.431			-2.804
87301.000			-22.430			-2.804
87400.000			-22.431			-2.804
87500.000			-22.431			-2.804
87601.000			-22.430			-2.804
87700.000			-22.429			-2.804
87800.000			-22.430			-2.804
87902.000			-22.428			-2.803
88001.000			-22.427			-2.803
88100.000			-22.427			-2.803
88200.000			-22.426			-2.803
88300.000			-22.426			-2.803
88401.000			-22.426			-2.803
88500.000			-22.425			-2.803
88600.000			-22.425			-2.803
88702.000			-22.422			-2.803
88801.000			-22.421			-2.803
88900.000			-22.421			-2.803
89001.000			-22.421			-2.803
89100.000			-22.423			-2.803
89200.000			-22.422			-2.803
89301.000			-22.421			-2.803
89400.000			-22.419			-2.802
89501.000			-22.418			-2.802
89602.000			-22.418			-2.802
89700.000			-22.418			-2.802
89800.000			-22.417			-2.802
89901.000			-22.416			-2.802
90000.000			-22.416			-2.802
90100.000			-22.416			-2.802
90201.000			-22.415			-2.802
90301.000			-22.415			-2.802
90401.000			-22.414			-2.802
90501.000			-22.414			-2.802
90600.000			-22.412			-2.802
90700.000			-22.412			-2.801
90801.000			-22.411			-2.801
90900.000			-22.410			-2.801
91000.000			-22.410			-2.801
91102.000			-22.410			-2.801
91201.000			-22.408			-2.801
91300.000			-22.408			-2.801
91400.000			-22.408			-2.801
91500.000			-22.408			-2.801
91601.000			-22.407			-2.801
91700.000			-22.407			-2.801
91800.000			-22.406			-2.801
91901.000			-22.405			-2.801
92001.000			-22.405			-2.801
92101.000			-22.405			-2.801
92201.000			-22.404			-2.800
92300.000			-22.403			-2.800
92400.000			-22.403			-2.800
92501.000			-22.403			-2.800
92600.000			-22.402			-2.800
92701.000			-22.402			-2.800
92802.000			-22.402			-2.800
92900.000			-22.402			-2.800
93000.000			-22.400			-2.800
93101.000			-22.399			-2.800
93200.000			-22.399			-2.800
93300.000			-22.398			-2.800
93401.000			-22.398			-2.800
93501.000			-22.397			-2.800
93601.000			-22.397			-2.800
93702.000			-22.395			-2.799
93800.000			-22.394			-2.799
93900.000			-22.394			-2.799
94001.000			-22.394			-2.799
94100.000			-22.393			-2.799
94200.000			-22.392			-2.799
94301.000			-22.393			-2.799
94401.000			-22.392			-2.799
94502.000			-22.392			-2.799
94600.000			-22.391			-2.799
94700.000			-22.389			-2.799
94801.000			-22.389			-2.799
94900.000			-22.389			-2.799
95000.000			-22.390			-2.799
95101.000			-22.388			-2.799
95201.000			-22.387			-2.798
95301.000			-22.387			-2.798
95401.000			-22.387			-2.798
95500.000			-22.386			-2.798
95600.000			-22.385			-2.798
95701.000			-22.384			-2.798
95800.000			-22.384			-2.798
95900.000			-22.382			-2.798
96001.000			-22.382			-2.798
96101.000			-22.382			-2.798
96201.000			-22.381			-2.798
96301.000			-22.382			-2.798
96400.000			-22.381			-2.798
96500.000			-22.380			-2.798
96601.000			-22.381			-2.798
96700.000			-22.380			-2.797
96800.000			-22.379			-2.797
96902.000			-22.378			-2.797
97001.000			-22.378			-2.797
97100.000			-22.377			-2.797
97201.000			-22.376			-2.797
97300.000			-22.375			-2.797
97400.000			-22.375			-2.797
97501.000			-22.375			-2.797
97600.000			-22.375			-2.797
97702.000			-22.373			-2.797
97801.000			-22.372			-2.797
97901.000			-22.373			-2.797
98001.000			-22.372			-2.796
98100.000			-22.372			-2.796
98200.000			-22.371			-2.796
98301.000			-22.370			-2.796
98400.000			-22.369			-2.796
98500.000			-22.369			-2.796
98602.000			-22.369			-2.796
98701.000			-22.369			-2.796
98800.000			-22.367			-2.796
98901.000			-22.367			-2.796
99000.000			-22.367			-2.796
99100.000			-22.367			-2.796
99201.000			-22.366			-2.796
99300.000			-22.366			-2.796
99400.000			-22.366			-2.796
99502.000			-22.364			-2.796
99601.000			-22.364			-2.795
99700.000			-22.363			-2.795
99801.000			-22.362			-2.795
99900.000			-22.362			-2.795
100000.000			-22.362			-2.795
100101.000			-22.361			-2.795
100200.000			-22.361			-2.795
100301.000			-22.359			-2.795
100402.000			-22.358			-2.795
100500.000			-22.358			-2.795
100600.000			-22.358			-2.795
100701.000			-22.358			-2.795
100800.000			-22.357			-2.795
100900.000			-22.357			-2.795
101000.000			-22.355			-2.794
101101.000			-22.356			-2.795
101202.000			-22.356			-2.794
101300.000			-22.354			-2.794
101400.000			-22.353			-2.794
101501.000			-22.353			-2.794
101600.000			-22.353			-2.794
101700.000			-22.352			-2.794
101801.000			-22.352			-2.794
101901.000			-22.352			-2.794
102001.000			-22.351			-2.794
102101.000			-22.350			-2.794
102200.000			-22.350			-2.794
102300.000			-22.349			-2.794
102401.000			-22.348			-2.794
102500.000			-22.348			-2.794
102600.000			-22.348			-2.794
102702.000			-22.348			-2.793
102801.000			-22.347			-2.793
102901.000			-22.347			-2.793
103001.000			-22.345			-2.793
103100.000			-22.345			-2.793
103200.000			-22.345			-2.793
103301.000			-22.343			-2.793
103400.000			-22.343			-2.793
103501.000			-22.344			-2.793
103602.000			-22.343			-2.793
103701.000			-22.342			-2.793
103800.000			-22.342			-2.793
103901.000			-22.341			-2.793
104000.000			-22.340			-2.793
104100.000			-22.338			-2.792
104200.000			-22.339			-2.792
104300.000			-22.340			-2.793
104402.000			-22.340			-2.792
104501.000			-22.338			-2.792
104600.000			-22.337			-2.792
104701.000			-22.336			-2.792
104800.000			-22.336			-2.792
104900.000			-22.336			-2.792
105001.000			-22.335			-2.792
105100.000			-22.334			-2.792
105201.000			-22.334			-2.792
105302.000			-22.334			-2.792
105400.000			-22.333			-2.792
105500.000			-22.333			-2.792
105601.000			-22.333			-2.792
105700.000			-22.332			-2.792
105800.000			-22.332			-2.791
105901.000			-22.331			-2.791
106001.000			-22.330			-2.791
106101.000			-22.329			-2.791
106201.000			-22.329			-2.791
106300.000			-22.329			-2.791
106400.000			-22.328			-2.791
106501.000			-22.328			-2.791
106600.000			-22.327			-2.791
106700.000			-22.327			-2.791
106802.000			-22.326			-2.791
106901.000			-22.325			-2.791
107000.000			-22.325			-2.791
107101.000			-22.326			-2.791
107200.000			-22.326			-2.791
107300.000			-22.324			-2.790
107400.000			-22.322			-2.790
107500.000			-22.322			-2.790
107601.000			-22.322			-2.790
107701.000			-22.323			-2.790
107801.000			-22.323			-2.790
107901.000			-22.321			-2.790
108000.000			-22.320			-2.790
108100.000			-22.321			-2.790
108201.000			-22.318			-2.790
108300.000			-22.318			-2.790
108400.000			-22.319			-2.790
108502.000			-22.319			-2.790
108601.000			-22.318			-2.790
108700.000			-22.318			-2.790
108801.000			-22.317			-2.790
108900.000			-22.317			-2.790
109000.000			-22.317			-2.790
109101.000			-22.315			-2.789
109200.000			-22.314			-2.789
109301.000			-22.313			-2.789
109402.000			-22.314			-2.789
109500.000			-22.313			-2.789
109600.000			-22.313			-2.789
109701.000			-22.311			-2.789
109800.000			-22.311			-2.789
109900.000			-22.310			-2.789
110001.000			-22.310			-2.789
110101.000			-22.310			-2.789
110201.000			-22.310			-2.789
110301.000			-22.309			-2.789
110400.000			-22.309			-2.789
110500.000			-22.309			-2.789
110600.000			-22.308			-2.789
110700.000			-22.308			-2.789
110801.000			-22.308			-2.789
110901.000			-22.306			-2.788
111001.000			-22.305			-2.788
111101.000			-22.305			-2.788
111200.000			-22.305			-2.788
111300.000			-22.304			-2.788
111401.000			-22.304			-2.788
111500.000			-22.303			-2.788
111600.000			-22.303			-2.788
111702.000			-22.303			-2.788
111801.000			-22.302			-2.788
111900.000			-22.301			-2.788
112001.000			-22.301			-2.788
112100.000			-22.300			-2.787
112200.000			-22.299			-2.787
112301.000			-22.299			-2.787
112400.000			-22.298			-2.787
112501.000			-22.299			-2.787
112602.000			-22.298			-2.787
112701.000			-22.296			-2.787
112800.000			-22.296			-2.787
112901.000			-22.296			-2.787
113000.000			-22.297			-2.787
113100.000			-22.297			-2.787
113201.000			-22.295			-2.787
113300.000			-22.293			-2.787
113401.000			-22.293			-2.787
113502.000			-22.293			-2.787
113600.000			-22.293			-2.787
113700.000			-22.294			-2.787
113800.000			-22.294			-2.787
113900.000			-22.292			-2.787
114001.000			-22.292			-2.786
114100.000			-22.291			-2.786
114201.000			-22.290			-2.786
114302.000			-22.290			-2.786
114400.000			-22.289			-2.786
114500.000			-22.289			-2.786
114601.000			-22.289			-2.786
114700.000			-22.290			-2.786
114800.000			-22.288			-2.786
114901.000			-22.289			-2.786
115001.000			-22.287			-2.786
115101.000			-22.287			-2.786
115202.000			-22.286			-2.786
115300.000			-22.286			-2.786
115400.000			-22.285			-2.786
115501.000			-22.285			-2.786
115600.000			-22.285			-2.786
115700.000			-22.285			-2.786
115801.000			-22.284			-2.785
115901.000			-22.283			-2.785
116001.000			-22.283			-2.785
116101.000			-22.283			-2.785
116200.000			-22.281			-2.785
116300.000			-22.280			-2.785
116401.000			-22.281			-2.785
116500.000			-22.281			-2.785
116600.000			-22.281			-2.785
116702.000			-22.280			-2.785
116801.000			-22.280			-2.785
116900.000			-22.279			-2.785
117000.000			-22.278			-2.785
117100.000			-22.277			-2.785
117201.000			-22.277			-2.785
117300.000			-22.277			-2.785
117400.000			-22.277			-2.785
117501.000			-22.276			-2.785
117601.000			-22.276			-2.784
117701.000			-22.274			-2.784
117801.000			-22.274			-2.784
117900.000			-22.273			-2.784
118000.000			-22.273			-2.784
118101.000			-22.273			-2.784
118200.000			-22.273			-2.784
118300.000			-22.273			-2.784
118402.000			-22.271			-2.784
118501.000			-22.271			-2.784
118600.000			-22.271			-2.784
118701.000			-22.271			-2.784
118800.000			-22.270			-2.784
118900.000			-22.269			-2.784
119001.000			-22.269			-2.784
119100.000			-22.268			-2.783
119200.000			-22.268			-2.783
119302.000			-22.268			-2.784
119401.000			-22.268			-2.783
119500.000			-22.267			-2.783
119601.000			-22.266			-2.783
119700.000			-22.266			-2.783
119800.000			-22.265			-2.783
119901.000			-22.264			-2.783
120000.000			-22.264			-2.783
120102.000			-22.264			-2.783
120201.000			-22.264			-2.783
120300.000			-22.264			-2.783
120401.000			-22.263			-2.783
120500.000			-22.262			-2.783
120600.000			-22.262			-2.783
120701.000			-22.263			-2.783
120800.000			-22.262			-2.783
120901.000			-22.261			-2.783
121002.000			-22.260			-2.782
121101.000			-22.260			-2.783
121200.000			-22.261			-2.783
121301.000			-22.258			-2.782
121400.000			-22.258			-2.782
121500.000			-22.258			-2.782
121601.000			-22.258			-2.782
121700.000			-22.257			-2.782
121801.000			-22.256			-2.782
121902.000			-22.256			-2.782
122000.000			-22.255			-2.782
122100.000			-22.255			-2.782
122201.000			-22.255			-2.782
122300.000			-22.254			-2.782
122400.000			-22.253			-2.782
122501.000			-22.254			-2.782
122601.000			-22.255			-2.782
122701.000			-22.253			-2.782
122801.000			-22.253			-2.782
122900.000			-22.252			-2.782
123000.000			-22.252			-2.781
123101.000			-22.251			-2.781
123200.000			-22.251			-2.781
123300.000			-22.252			-2.781
123402.000			-22.249			-2.781
123501.000			-22.249			-2.781
123601.000			-22.249			-2.781
123700.000			-22.249			-2.781
123800.000			-22.249			-2.781
123901.000			-22.247			-2.781
124000.000			-22.248			-2.781
124100.000			-22.248			-2.781
124202.000			-22.247			-2.781
124301.000			-22.247			-2.781
124401.000			-22.247			-2.781
124501.000			-22.247			-2.781
124600.000			-22.246			-2.781
124700.000			-22.245			-2.781
124801.000			-22.245			-2.781
124900.000			-22.244			-2.781
125000.000			-22.244			-2.780
125102.000			-22.243			-2.780
125201.000			-22.244			-2.780
125300.000			-22.242			-2.780
125401.000			-22.241			-2.780
125500.000			-22.240			-2.780
125600.000			-22.240			-2.780
125701.000			-22.240			-2.780
125800.000			-22.240			-2.780
125901.000			-22.240			-2.780
126002.000			-22.240			-2.780
126100.000			-22.239			-2.780
126200.000			-22.238			-2.780
126301.000			-22.237			-2.780
126400.000			-22.238			-2.780
126500.000			-22.236			-2.779
126600.000			-22.235			-2.779
126701.000			-22.235			-2.779
126802.000			-22.236			-2.779
126901.000			-22.235			-2.779
127000.000			-22.235			-2.779
127101.000			-22.234			-2.779
127200.000			-22.235			-2.779
127300.000			-22.234			-2.779
127401.000			-22.234			-2.779
127501.000			-22.233			-2.779
127601.000			-22.233			-2.779
127702.000			-22.233			-2.779
127800.000			-22.231			-2.779
127900.000			-22.231			-2.779
128001.000			-22.231			-2.779
128100.000			-22.230			-2.779
128200.000			-22.229			-2.779
128301.000			-22.229			-2.779
128401.000			-22.228			-2.779
128501.000			-22.229			-2.779
128601.000			-22.228			-2.779
128700.000			-22.227			-2.778
128800.000			-22.227			-2.778
128901.000			-22.227			-2.778
129000.000			-22.227			-2.778
129100.000			-22.227			-2.778
129202.000			-22.225			-2.778
129301.000			-22.224			-2.778
129400.000			-22.224			-2.778
129501.000			-22.225			-2.778
129600.000			-22.224			-2.778
129700.000			-22.223			-2.778
129800.000			-22.223			-2.778
129900.000			-22.223			-2.778
130002.000			-22.222			-2.778
130101.000			-22.222			-2.778
130200.000			-22.221			-2.778
130301.000			-22.220			-2.778
130400.000			-22.221			-2.778
130500.000			-22.221			-2.778
130601.000			-22.221			-2.778
130700.000			-22.221			-2.778
130801.000			-22.220			-2.778
130902.000			-22.220			-2.777
131001.000			-22.219			-2.777
131100.000			-22.218			-2.777
131201.000			-22.219			-2.777
131300.000			-22.218			-2.777
131400.000			-22.217			-2.777
131501.000			-22.217			-2.777
131600.000			-22.218			-2.777
131701.000			-22.216			-2.777
131802.000			-22.215			-2.777
131900.000			-22.214			-2.777
132000.000			-22.214			-2.777
132101.000			-22.215			-2.777
132200.000			-22.213			-2.777
132300.000			-22.213			-2.777
132401.000			-22.212			-2.777
132500.000			-22.212			-2.776
132601.000			-22.212			-2.776
132702.000			-22.212			-2.776
132800.000			-22.212			-2.776
132900.000			-22.210			-2.776
133000.000			-22.209			-2.776
133100.000			-22.209			-2.776
133201.000			-22.210			-2.776
133300.000			-22.210			-2.776
133401.000			-22.209			-2.776
133502.000			-22.208			-2.776
133601.000			-22.208			-2.776
133700.000			-22.207			-2.776
133801.000			-22.205			-2.776
133900.000			-22.205			-2.776
134000.000			-22.206			-2.776
134101.000			-22.206			-2.776
134200.000			-22.206			-2.776
134301.000			-22.204			-2.775
134402.000			-22.204			-2.775
134500.000			-22.204			-2.776
134600.000			-22.203			-2.775
134701.000			-22.203			-2.775
134800.000			-22.203			-2.775
134900.000			-22.202			-2.775
135001.000			-22.201			-2.775
135100.000			-22.202			-2.775
135201.000			-22.202			-2.775
135302.000			-22.202			-2.775
135400.000			-22.201			-2.775
135500.000			-22.201			-2.775
135601.000			-22.200			-2.775
135700.000			-22.199			-2.775
135800.000			-22.198			-2.775
135901.000			-22.198			-2.775
136000.000			-22.197			-2.775
136102.000			-22.197			-2.775
136201.000			-22.197			-2.775
136300.000			-22.197			-2.775
136401.000			-22.196			-2.775
136500.000			-22.195			-2.774
136600.000			-22.195			-2.774
136701.000			-22.195			-2.774
136800.000			-22.196			-2.774
136900.000			-22.196			-2.775
137002.000			-22.195			-2.774
137101.000			-22.195			-2.774
137201.000			-22.193			-2.774
137301.000			-22.192			-2.774
137400.000			-22.192			-2.774
137500.000			-22.191			-2.774
137601.000			-22.190			-2.774
137700.000			-22.191			-2.774
137800.000			-22.191			-2.774
137902.000			-22.191			-2.774
138001.000			-22.190			-2.774
138101.000			-22.190			-2.774
138201.000			-22.190			-2.774
138300.000			-22.190			-2.774
138400.000			-22.190			-2.774
138501.000			-22.189			-2.774
138600.000			-22.188			-2.774
138700.000			-22.186			-2.773
138801.000			-22.187			-2.773
138901.000			-22.187			-2.773
139001.000			-22.186			-2.773
139101.000			-22.186			-2.773
139200.000			-22.186			-2.773
139300.000			-22.185			-2.773
139400.000			-22.184			-2.773
139500.000			-22.185			-2.773
139601.000			-22.184			-2.773
139700.000			-22.183			-2.773
139801.000			-22.184			-2.773
139902.000			-22.184			-2.773
140001.000			-22.185			-2.773
140100.000			-22.182			-2.773
140201.000			-22.181			-2.773
140300.000			-22.181			-2.773
140400.000			-22.180			-2.773
140501.000			-22.180			-2.773
140600.000			-22.180			-2.773
140701.000			-22.180			-2.772
140802.000			-22.180			-2.773
140900.000			-22.179			-2.772
141000.000			-22.179			-2.772
141101.000			-22.178			-2.772
141200.000			-22.178			-2.772
141300.000			-22.178			-2.772
141401.000			-22.178			-2.772
141500.000			-22.178			-2.772
141601.000			-22.176			-2.772
141702.000			-22.175			-2.772
141800.000			-22.175			-2.772
141900.000			-22.174			-2.772
142001.000			-22.174			-2.772
142100.000			-22.174			-2.772
142200.000			-22.174			-2.772
142301.000			-22.174			-2.772
142400.000			-22.174			-2.772
142502.000			-22.172			-2.771
142601.000			-22.172			-2.771
142701.000			-22.171			-2.771
142801.000			-22.171			-2.771
142900.000			-22.171			-2.771
143000.000			-22.171			-2.771
143101.000			-22.171			-2.771
143200.000			-22.170			-2.771
143300.000			-22.170			-2.771
143402.000			-22.170			-2.771
143501.000			-22.169			-2.771
143601.000			-22.168			-2.771
143701.000			-22.169			-2.771
143800.000			-22.168			-2.771
143900.000			-22.169			-2.771
144001.000			-22.169			-2.771
144100.000			-22.167			-2.771
144200.000			-22.167			-2.771
144302.000			-22.166			-2.771
144401.000			-22.167			-2.771
144501.000			-22.166			-2.771
144601.000			-22.167			-2.771
144700.000			-22.166			-2.771
144800.000			-22.165			-2.771
144901.000			-22.165			-2.771
145000.000			-22.164			-2.771
145100.000			-22.164			-2.771
145201.000			-22.165			-2.771
145301.000			-22.164			-2.771
145401.000			-22.164			-2.770
145501.000			-22.162			-2.770
145600.000			-22.162			-2.770
145700.000			-22.162			-2.770
145800.000			-22.162			-2.770
145900.000			-22.160			-2.770
146001.000			-22.160			-2.770
146100.000			-22.160			-2.770
146201.000			-22.160			-2.770
146302.000			-22.160			-2.770
146400.000			-22.160			-2.770
146500.000			-22.160			-2.770
146601.000			-22.159			-2.770
146700.000			-22.157			-2.770
146800.000			-22.158			-2.770
146901.000			-22.157			-2.770
147000.000			-22.157			-2.770
147101.000			-22.157			-2.770
147202.000			-22.157			-2.770
147300.000			-22.156			-2.770
147400.000			-22.156			-2.770
147501.000			-22.156			-2.769
147600.000			-22.155			-2.769
147700.000			-22.155			-2.769
147801.000			-22.153			-2.769
147900.000			-22.153			-2.769
148001.000			-22.153			-2.769
148102.000			-22.153			-2.769
148201.000			-22.152			-2.769
148300.000			-22.151			-2.769
148401.000			-22.151			-2.769
148500.000			-22.151			-2.769
148600.000			-22.152			-2.769
148701.000			-22.151			-2.769
148800.000			-22.150			-2.769
148902.000			-22.151			-2.769
149001.000			-22.151			-2.769
149101.000			-22.149			-2.769
149201.000			-22.149			-2.769
149300.000			-22.149			-2.769
149400.000			-22.148			-2.769
149501.000			-22.147			-2.768
149600.000			-22.147			-2.768
149700.000			-22.146			-2.768
149801.000			-22.146			-2.768
149901.000			-22.147			-2.768
150001.000			-22.147			-2.768
150101.000			-22.146			-2.768
150200.000			-22.145			-2.768
150300.000			-22.144			-2.768
150401.000			-22.144			-2.768
150500.000			-22.144			-2.768
150600.000			-22.143			-2.768
150701.000			-22.143			-2.768
150801.000			-22.144			-2.768
150901.000			-22.143			-2.768
151001.000			-22.143			-2.768
151100.000			-22.143			-2.768
151200.000			-22.142			-2.768
151301.000			-22.141			-2.768
151400.000			-22.141			-2.768
151500.000			-22.140			-2.767
151601.000			-22.140			-2.768
151701.000			-22.140			-2.768
151801.000			-22.140			-2.767
151901.000			-22.140			-2.768
152000.000			-22.140			-2.767
152100.000			-22.139			-2.767
152200.000			-22.139			-2.767
152300.000			-22.139			-2.767
152401.000			-22.139			-2.767
152500.000			-22.138			-2.767
152601.000			-22.138			-2.767
152702.000			-22.136			-2.767
152800.000			-22.135			-2.767
152900.000			-22.136			-2.767
153001.000			-22.136			-2.767
153100.000			-22.136			-2.767
153200.000			-22.135			-2.767
153301.000			-22.133			-2.767
153400.000			-22.133			-2.767
153501.000			-22.133			-2.767
153602.000			-22.133			-2.767
153700.000			-22.133			-2.767
153800.000			-22.133			-2.767
153901.000			-22.133			-2.767
154000.000			-22.133			-2.767
154100.000			-22.133			-2.767
154201.000			-22.132			-2.767
154301.000			-22.132			-2.766
154401.000			-22.131			-2.766
154502.000			-22.131			-2.766
154600.000			-22.130			-2.766
154700.000			-22.130			-2.766
154801.000			-22.129			-2.766
154900.000			-22.130			-2.766
155000.000			-22.130			-2.766
155101.000			-22.129			-2.766
155201.000			-22.128			-2.766
155302.000			-22.128			-2.766
155401.000			-22.127			-2.766
155500.000			-22.127			-2.766
155601.000			-22.127			-2.766
155700.000			-22.127			-2.766
155800.000			-22.127			-2.766
155901.000			-22.126			-2.766
156000.000			-22.125			-2.766
156100.000			-22.126			-2.766
156202.000			-22.125			-2.766
156301.000			-22.124			-2.766
156400.000			-22.124			-2.765
156501.000			-22.124			-2.765
156600.000			-22.124			-2.765
156700.000			-22.123			-2.765
156801.000			-22.123			-2.765
156900.000			-22.123			-2.765
157000.000			-22.121			-2.765
157102.000			-22.121			-2.765
157201.000			-22.122			-2.765
157300.000			-22.121			-2.765
157401.000			-22.120			-2.765
157500.000			-22.120			-2.765
157600.000			-22.119			-2.765
157701.000			-22.119			-2.765
157800.000			-22.120			-2.765
157900.000			-22.119			-2.765
158002.000			-22.118			-2.765
158101.000			-22.118			-2.765
158200.000			-22.119			-2.765
158301.000			-22.117			-2.765
158400.000			-22.117			-2.765
158500.000			-22.117			-2.765
158600.000			-22.116			-2.764
158700.000			-22.115			-2.764
158801.000			-22.115			-2.764
158901.000			-22.115			-2.764
159001.000			-22.115			-2.764
159101.000			-22.115			-2.764
159200.000			-22.115			-2.764
159300.000			-22.114			-2.764
159401.000			-22.114			-2.764
159500.000			-22.114			-2.764
159600.000			-22.114			-2.764
159701.000			-22.113			-2.764
159801.000			-22.112			-2.764
159901.000			-22.112			-2.764
160002.000			-22.112			-2.764
160100.000			-22.112			-2.764
160200.000			-22.112			-2.764
160301.000			-22.112			-2.764
160400.000			-22.111			-2.764
160500.000			-22.110			-2.764
160601.000			-22.109			-2.764
160701.000			-22.109			-2.764
160801.000			-22.108			-2.764
160901.000			-22.108			-2.763
161000.000			-22.108			-2.763
161100.000			-22.108			-2.764
161201.000			-22.107			-2.763
161300.000			-22.106			-2.763
161400.000			-22.106			-2.763
161501.000			-22.106			-2.763
161601.000			-22.107			-2.763
161702.000			-22.106			-2.763
161800.000			-22.105			-2.763
161900.000			-22.105			-2.763
162001.000			-22.104			-2.763
162100.000			-22.105			-2.763
162200.000			-22.105			-2.763
162301.000			-22.104			-2.763
162400.000			-22.104			-2.763
162501.000			-22.104			-2.763
162602.000			-22.103			-2.763
162700.000			-22.103			-2.763
162800.000			-22.102			-2.763
162901.000			-22.102			-2.763
163000.000			-22.103			-2.763
163100.000			-22.102			-2.763
163201.000			-22.102			-2.763
163300.000			-22.100			-2.762
163401.000			-22.100			-2.763
163502.000			-22.101			-2.763
163600.000			-22.099			-2.762
163700.000			-22.099			-2.762
163801.000			-22.099			-2.762
163900.000			-22.099			-2.762
164000.000			-22.099			-2.762
164101.000			-22.098			-2.762
164200.000			-22.097			-2.762
164301.000			-22.097			-2.762
164402.000			-22.096			-2.762
164500.000			-22.096			-2.762
164600.000			-22.096			-2.762
164701.000			-22.095			-2.762
164800.000			-22.095			-2.762
164900.000			-22.094			-2.762
165000.000			-22.096			-2.762
165100.000			-22.096			-2.762
165202.000			-22.095			-2.762
165301.000			-22.094			-2.762
165401.000			-22.094			-2.762
165501.000			-22.093			-2.762
165600.000			-22.092			-2.762
165700.000			-22.093			-2.762
165801.000			-22.093			-2.762
165900.000			-22.093			-2.762
166000.000			-22.092			-2.762
166101.000			-22.092			-2.762
166201.000			-22.091			-2.761
166301.000			-22.091			-2.761
166401.000			-22.091			-2.761
166500.000			-22.090			-2.761
166600.000			-22.090			-2.761
166701.000			-22.090			-2.761
166800.000			-22.089			-2.761
166900.000			-22.088			-2.761
167001.000			-22.088			-2.761
167101.000			-22.087			-2.761
167201.000			-22.086			-2.761
167301.000			-22.086			-2.761
167400.000			-22.086			-2.761
167500.000			-22.086			-2.761
167601.000			-22.085			-2.761
167700.000			-22.086			-2.761
167800.000			-22.085			-2.761
167901.000			-22.085			-2.761
168001.000			-22.085			-2.761
168102.000			-22.085			-2.761
168201.000			-22.085			-2.761
168300.000			-22.084			-2.760
168401.000			-22.083			-2.760
168500.000			-22.083			-2.760
168600.000			-22.083			-2.760
168701.000			-22.083			-2.760
168800.000			-22.083			-2.760
168900.000			-22.083			-2.760
169002.000			-22.082			-2.760
169101.000			-22.081			-2.760
169200.000			-22.081			-2.760
169301.000			-22.081			-2.760
169400.000			-22.080			-2.760
169500.000			-22.080			-2.760
169601.000			-22.079			-2.760
169700.000			-22.079			-2.760
169800.000			-22.079			-2.760
169902.000			-22.080			-2.760
170001.000			-22.079			-2.760
170101.000			-22.078			-2.760
170201.000			-22.078			-2.760
170300.000			-22.078			-2.760
170400.000			-22.078			-2.760
170501.000			-22.077			-2.760
170600.000			-22.077			-2.760
170700.000			-22.076			-2.759
170802.000			-22.077			-2.760
170901.000			-22.077			-2.760
171001.000			-22.076			-2.759
171101.000			-22.075			-2.759
171200.000			-22.075			-2.759
171300.000			-22.074			-2.759
171400.000			-22.073			-2.759
171500.000			-22.073			-2.759
171601.000			-22.073			-2.759
171700.000			-22.074			-2.759
171801.000			-22.073			-2.759
171902.000			-22.073			-2.759
172000.000			-22.072			-2.759
172100.000			-22.072			-2.759
172201.000			-22.071			-2.759
172300.000			-22.070			-2.759
172400.000			-22.072			-2.759
172501.000			-22.071			-2.759
172600.000			-22.071			-2.759
172701.000			-22.072			-2.759
172802.000			-22.071			-2.759
172900.000			-22.071			-2.759
173000.000			-22.070			-2.759
173101.000			-22.070			-2.759
173200.000			-22.070			-2.759
173300.000			-22.068			-2.758
173401.000			-22.067			-2.758
173500.000			-22.067			-2.758
173601.000			-22.067			-2.758
173702.000			-22.067			-2.758
173800.000			-22.066			-2.758
173900.000			-22.067			-2.758
174001.000			-22.067			-2.758
174100.000			-22.066			-2.758
174200.000			-22.065			-2.758
174301.000			-22.065			-2.758
174400.000			-22.065			-2.758
174502.000			-22.065			-2.758
174601.000			-22.064			-2.758
174701.000			-22.063			-2.758
174801.000			-22.064			-2.758
174900.000			-22.064			-2.758
175000.000			-22.064			-2.758
175101.000			-22.064			-2.758
175200.000			-22.063			-2.758
175300.000			-22.062			-2.758
175402.000			-22.061			-2.758
175501.000			-22.061			-2.758
175601.000			-22.062			-2.758
175701.000			-22.061			-2.758
175800.000			-22.060			-2.758
175900.000			-22.060			-2.757
176001.000			-22.060			-2.757
176100.000			-22.059			-2.757
176200.000			-22.059			-2.757
176302.000			-22.059			-2.757
176401.000			-22.058			-2.757
176501.000			-22.058			-2.757
176601.000			-22.058			-2.757
176700.000			-22.057			-2.757
176800.000			-22.057			-2.757
176901.000			-22.058			-2.757
177000.000			-22.057			-2.757
177100.000			-22.057			-2.757
177201.000			-22.057			-2.757
177301.000			-22.056			-2.757
177401.000			-22.055			-2.757
177501.000			-22.055			-2.757
177600.000			-22.054			-2.757
177700.000			-22.055			-2.757
177800.000			-22.054			-2.757
177900.000			-22.053			-2.757
178001.000			-22.053			-2.757
178100.000			-22.052			-2.757
178201.000			-22.053			-2.757
178302.000			-22.052			-2.757
178401.000			-22.052			-2.757
178500.000			-22.052			-2.757
178601.000			-22.052			-2.756
178700.000			-22.052			-2.757
178800.000			-22.051			-2.756
178901.000			-22.050			-2.756
179000.000			-22.051			-2.756
179101.000			-22.050			-2.756
179202.000			-22.051			-2.756
179301.000			-22.050			-2.756
179400.000			-22.049			-2.756
179501.000			-22.049			-2.756
179600.000			-22.048			-2.756
179700.000			-22.047			-2.756
179801.000			-22.047			-2.756
179900.000			-22.048			-2.756
180000.000			-22.047			-2.756
180102.000			-22.048			-2.756
180201.000			-22.048			-2.756
180300.000			-22.047			-2.756
180401.000			-22.046			-2.756
180500.000			-22.045			-2.756
180600.000			-22.045			-2.756
180701.000			-22.046			-2.756
180800.000			-22.045			-2.756
180900.000			-22.045			-2.756
181002.000			-22.044			-2.756
181101.000			-22.044			-2.755
181201.000			-22.044			-2.755
181300.000			-22.044			-2.756
181400.000			-22.043			-2.755
181501.000			-22.043			-2.755
181600.000			-22.041			-2.755
181700.000			-22.041			-2.755
181802.000			-22.042			-2.755
181901.000			-22.041			-2.755
182001.000			-22.042			-2.755
182101.000			-22.042			-2.755
182200.000			-22.040			-2.755
182300.000			-22.040			-2.755
182401.000			-22.040			-2.755
182500.000			-22.040			-2.755
182600.000			-22.040			-2.755
182702.000			-22.039			-2.755
182801.000			-22.038			-2.755
182901.000			-22.038			-2.755
183001.000			-22.038			-2.755
183100.000			-22.037			-2.755
183200.000			-22.038			-2.755
183301.000			-22.037			-2.755
183400.000			-22.037			-2.755
183500.000			-22.037			-2.755
183602.000			-22.036			-2.754
183701.000			-22.035			-2.754
183801.000			-22.035			-2.754
183901.000			-22.035			-2.754
184000.000			-22.034			-2.754
184100.000			-22.034			-2.754
184200.000			-22.034			-2.754
184300.000			-22.035			-2.754
184401.000			-22.034			-2.754
184500.000			-22.033			-2.754
184601.000			-22.034			-2.754
184702.000			-22.033			-2.754
184800.000			-22.031			-2.754
184900.000			-22.032			-2.754
185001.000			-22.033			-2.754
185100.000			-22.032			-2.754
185200.000			-22.031			-2.754
185301.000			-22.031			-2.754
185400.000			-22.031			-2.754
185501.000			-22.031			-2.754
185602.000			-22.031			-2.754
185700.000			-22.030			-2.754
185800.000			-22.030			-2.754
185901.000			-22.029			-2.754
186000.000			-22.029			-2.754
186100.000			-22.029			-2.754
186201.000			-22.029			-2.754
186300.000			-22.028			-2.753
186401.000			-22.027			-2.753
186502.000			-22.028			-2.753
186600.000			-22.027			-2.753
186700.000			-22.027			-2.753
186801.000			-22.027			-2.753
186900.000			-22.026			-2.753
187000.000			-22.026			-2.753
187101.000			-22.026			-2.753
187200.000			-22.026			-2.753
187302.000			-22.025			-2.753
187401.000			-22.025			-2.753
187501.000			-22.026			-2.753
187601.000			-22.025			-2.753
187700.000			-22.024			-2.753
187800.000			-22.024			-2.753
187901.000			-22.024			-2.753
188000.000			-22.024			-2.753
188100.000			-22.022			-2.753
188202.000			-22.022			-2.753
188301.000			-22.022			-2.753
188401.000			-22.022			-2.753
188501.000			-22.023			-2.753
188600.000			-22.023			-2.753
188700.000			-22.022			-2.753
188801.000			-22.021			-2.753
188900.000			-22.021			-2.753
189000.000			-22.020			-2.753
189102.000			-22.019			-2.752
189201.000			-22.018			-2.752
189301.000			-22.019			-2.752
189401.000			-22.020			-2.753
189500.000			-22.018			-2.752
189600.000			-22.019			-2.752
189701.000			-22.018			-2.752
189800.000			-22.017			-2.752
189900.000			-22.018			-2.752
190001.000			-22.018			-2.752
190101.000			-22.018			-2.752
190201.000			-22.018			-2.752
190301.000			-22.016			-2.752
190400.000			-22.016			-2.752
190500.000			-22.016			-2.752
190600.000			-22.017			-2.752
190700.000			-22.016			-2.752
190801.000			-22.015			-2.752
190900.000			-22.015			-2.752
191001.000			-22.014			-2.752
191102.000			-22.015			-2.752
191200.000			-22.013			-2.752
191300.000			-22.014			-2.752
191401.000			-22.014			-2.752
191500.000			-22.013			-2.752
191600.000			-22.013			-2.752
191701.000			-22.013			-2.752
191800.000			-22.012			-2.752
191901.000			-22.012			-2.751
192002.000			-22.012			-2.752
192100.000			-22.013			-2.752
192200.000			-22.012			-2.752
192301.000			-22.011			-2.751
192400.000			-22.010			-2.751
192500.000			-22.010			-2.751
192601.000			-22.011			-2.751
192700.000			-22.010			-2.751
192801.000			-22.010			-2.751
192902.000			-22.011			-2.751
193000.000			-22.011			-2.751
193100.000			-22.009			-2.751
193201.000			-22.009			-2.751
193300.000			-22.009			-2.751
193400.000			-22.009			-2.751
193501.000			-22.008			-2.751
193600.000			-22.007			-2.751
193702.000			-22.007			-2.751
193801.000			-22.007			-2.751
193900.000			-22.007			-2.751
194001.000			-22.006			-2.751
194100.000			-22.006			-2.751
194200.000			-22.006			-2.751
194301.000			-22.005			-2.751
194400.000			-22.005			-2.751
194500.000			-22.005			-2.751
194602.000			-22.005			-2.751
194701.000			-22.005			-2.751
194800.000			-22.004			-2.750
194901.000			-22.004			-2.750
195000.000			-22.004			-2.750
195100.000			-22.004			-2.750
195201.000			-22.003			-2.750
195300.000			-22.002			-2.750
195400.000			-22.002			-2.750
195502.000			-22.002			-2.750
195601.000			-22.003			-2.750
195700.000			-22.001			-2.750
195801.000			-22.001			-2.750
195900.000			-22.001			-2.750
196000.000			-22.000			-2.750
196101.000			-21.999			-2.750
196200.000			-22.000			-2.750
196300.000			-21.999			-2.750
196402.000			-22.000			-2.750
196501.000			-22.000			-2.750
196601.000			-21.999			-2.750
196701.000			-21.999			-2.750
196800.000			-21.998			-2.750
196900.000			-21.998			-2.750
197000.000			-21.998			-2.750
197100.000			-21.998			-2.750
197201.000			-21.998			-2.750
197300.000			-21.997			-2.750
197400.000			-21.997			-2.750
197502.000			-21.996			-2.750
197601.000			-21.996			-2.750
197700.000			-21.996			-2.750
197801.000			-21.996			-2.750
197900.000			-21.996			-2.750
198000.000			-21.995			-2.749
198101.000			-21.994			-2.749
198200.000			-21.993			-2.749
198300.000			-21.993			-2.749
198401.000			-21.993			-2.749
198501.000			-21.993			-2.749
198601.000			-21.992			-2.749
198701.000			-21.991			-2.749
198800.000			-21.992			-2.749
198900.000			-21.992			-2.749
199001.000			-21.992			-2.749
199100.000			-21.991			-2.749
199200.000			-21.991			-2.749
199301.000			-21.992			-2.749
199400.000			-21.991			-2.749
199501.000			-21.991			-2.749
199602.000			-21.990			-2.749
199700.000			-21.989			-2.749
199800.000			-21.989			-2.749
199901.000			-21.988			-2.749
200000.000			-21.989			-2.749
200100.000			-21.988			-2.749
200200.000			-21.989			-2.749
200300.000			-21.989			-2.749
200401.000			-21.987			-2.748
200501.000			-21.987			-2.748
200601.000			-21.987			-2.748
200701.000			-21.986			-2.748
200800.000			-21.986			-2.748
200900.000			-21.986			-2.748
201001.000			-21.985			-2.748
201100.000			-21.985			-2.748
201200.000			-21.985			-2.748
201301.000			-21.985			-2.748
201401.000			-21.986			-2.748
201501.000			-21.987			-2.748
201601.000			-21.986			-2.748
201700.000			-21.985			-2.748
201800.000			-21.983			-2.748
201901.000			-21.983			-2.748
202000.000			-21.983			-2.748
202100.000			-21.983			-2.748
202201.000			-21.983			-2.748
202301.000			-21.983			-2.748
202401.000			-21.982			-2.748
202501.000			-21.982			-2.748
202600.000			-21.982			-2.748
202700.000			-21.982			-2.748
202801.000			-21.981			-2.748
202900.000			-21.980			-2.748
203000.000			-21.980			-2.747
203101.000			-21.980			-2.748
203201.000			-21.980			-2.747
203302.000			-21.980			-2.748
203401.000			-21.980			-2.747
203500.000			-21.979			-2.747
203601.000			-21.979			-2.747
203700.000			-21.979			-2.747
203800.000			-21.979			-2.747
203901.000			-21.978			-2.747
204000.000			-21.978			-2.747
204100.000			-21.978			-2.747
204202.000			-21.977			-2.747
204301.000			-21.977			-2.747
204400.000			-21.977			-2.747
204501.000			-21.976			-2.747
204600.000			-21.976			-2.747
204700.000			-21.976			-2.747
204801.000			-21.976			-2.747
204900.000			-21.976			-2.747
205000.000			-21.975			-2.747
205102.000			-21.974			-2.747
205201.000			-21.974			-2.747
205301.000			-21.974			-2.747
205401.000			-21.973			-2.747
205500.000			-21.974			-2.747
205600.000			-21.973			-2.747
205701.000			-21.973			-2.747
205800.000			-21.973			-2.747
205900.000			-21.973			-2.747
206002.000			-21.972			-2.747
206101.000			-21.971			-2.746
206201.000			-21.971			-2.746
206301.000			-21.971			-2.746
206400.000			-21.970			-2.746
206500.000			-21.971			-2.746
206600.000			-21.971			-2.746
206700.000			-21.971			-2.746
206801.000			-21.970			-2.746
206900.000			-21.971			-2.746
207001.000			-21.971			-2.746
207102.000			-21.969			-2.746
207200.000			-21.969			-2.746
207300.000			-21.969			-2.746
207401.000			-21.969			-2.746
207500.000			-21.969			-2.746
207600.000			-21.968			-2.746
207701.000			-21.969			-2.746
207800.000			-21.967			-2.746
207901.000			-21.966			-2.746
208002.000			-21.967			-2.746
208101.000			-21.967			-2.746
208200.000			-21.966			-2.746
208301.000			-21.966			-2.746
208400.000			-21.966			-2.746
208500.000			-21.966			-2.746
208601.000			-21.965			-2.746
208700.000			-21.964			-2.745
208800.000			-21.964			-2.745
208902.000			-21.964			-2.745
209001.000			-21.963			-2.745
209100.000			-21.963			-2.745
209201.000			-21.963			-2.745
209300.000			-21.963			-2.745
209400.000			-21.963			-2.745
209501.000			-21.963			-2.745
209600.000			-21.962			-2.745
209700.000			-21.961			-2.745
209802.000			-21.961			-2.745
209901.000			-21.962			-2.745
210002.000			-21.962			-2.745
210100.000			-21.963			-2.745
210200.000			-21.962			-2.745
210301.000			-21.962			-2.745
210400.000			-21.961			-2.745
210500.000			-21.960			-2.745
210601.000			-21.960			-2.745
210701.000			-21.960			-2.745
210801.000			-21.959			-2.745
210902.000			-21.959			-2.745
211000.000			-21.960			-2.745
211100.000			-21.959			-2.745
211201.000			-21.958			-2.745
211300.000			-21.959			-2.745
211400.000			-21.957			-2.745
211501.000			-21.957			-2.745
211601.000			-21.957			-2.745
211701.000			-21.957			-2.745
211802.000			-21.957			-2.745
211900.000			-21.957			-2.745
212000.000			-21.956			-2.744
212101.000			-21.957			-2.745
212200.000			-21.957			-2.745
212300.000			-21.955			-2.744
212401.000			-21.955			-2.744
212500.000			-21.954			-2.744
212601.000			-21.955			-2.744
212702.000			-21.956			-2.744
212800.000			-21.954			-2.744
212900.000			-21.953			-2.744
213000.000			-21.954			-2.744
213100.000			-21.954			-2.744
213201.000			-21.953			-2.744
213300.000			-21.952			-2.744
213400.000			-21.952			-2.744
213502.000			-21.953			-2.744
213601.000			-21.952			-2.744
213700.000			-21.953			-2.744
213801.000			-21.953			-2.744
213900.000			-21.952			-2.744
214000.000			-21.952			-2.744
214101.000			-21.951			-2.744
214200.000			-21.951			-2.744
214300.000			-21.950			-2.744
214402.000			-21.950			-2.744
214501.000			-21.950			-2.744
214600.000			-21.950			-2.744
214701.000			-21.950			-2.744
214800.000			-21.950			-2.744
214900.000			-21.949			-2.744
215001.000			-21.948			-2.744
215100.000			-21.949			-2.744
215200.000			-21.949			-2.744
215302.000			-21.948			-2.744
215401.000			-21.948			-2.743
215501.000			-21.947			-2.743
215601.000			-21.947			-2.743
215700.000			-21.947			-2.743
215800.000			-21.946			-2.743
215901.000			-21.946			-2.743
216000.000			-21.946			-2.743
216100.000			-21.947			-2.743
216200.000			-21.947			-2.743
216301.000			-21.946			-2.743
216402.000			-21.945			-2.743
216500.000			-21.945			-2.743
216600.000			-21.944			-2.743
216701.000			-21.945			-2.743
216800.000			-21.944			-2.743
216900.000			-21.944			-2.743
217001.000			-21.944			-2.743
217100.000			-21.942			-2.743
217201.000			-21.942			-2.743
217302.000			-21.943			-2.743
217401.000			-21.942			-2.743
217500.000			-21.942			-2.743
217601.000			-21.941			-2.743
217700.000			-21.942			-2.743
217800.000			-21.942			-2.743
217901.000			-21.942			-2.743
218000.000			-21.941			-2.743
218101.000			-21.940			-2.742
218202.000			-21.941			-2.743
218301.000			-21.941			-2.743
218400.000			-21.941			-2.743
218501.000			-21.940			-2.743
218600.000			-21.939			-2.742
218700.000			-21.939			-2.742
218801.000			-21.938			-2.742
218900.000			-21.939			-2.742
219000.000			-21.938			-2.742
219102.000			-21.940			-2.742
219201.000			-21.939			-2.742
219300.000			-21.938			-2.742
219400.000			-21.938			-2.742
219500.000			-21.937			-2.742
219601.000			-21.937			-2.742
219700.000			-21.937			-2.742
219800.000			-21.936			-2.742
219901.000			-21.936			-2.742
220001.000			-21.936			-2.742
220101.000			-21.936			-2.742
220201.000			-21.935			-2.742
220300.000			-21.935			-2.742
220400.000			-21.935			-2.742
220501.000			-21.936			-2.742
220600.000			-21.935			-2.742
220700.000			-21.933			-2.742
220801.000			-21.933			-2.742
220901.000			-21.933			-2.742
221001.000			-21.934			-2.742
221101.000			-21.934			-2.742
221200.000			-21.933			-2.742
221300.000			-21.933			-2.742
221401.000			-21.933			-2.742
221500.000			-21.932			-2.741
221600.000			-21.931			-2.741
221701.000			-21.930			-2.741
221801.000			-21.931			-2.741
221901.000			-21.931			-2.741
222001.000			-21.931			-2.741
222100.000			-21.931			-2.741
222200.000			-21.930			-2.741
222301.000			-21.929			-2.741
222400.000			-21.930			-2.741
222500.000			-21.930			-2.741
222600.000			-21.930			-2.741
222701.000			-21.929			-2.741
222802.000			-21.929			-2.741
222901.000			-21.928			-2.741
223000.000			-21.929			-2.741
223101.000			-21.927			-2.741
223200.000			-21.928			-2.741
223300.000			-21.928			-2.741
223401.000			-21.927			-2.741
223500.000			-21.927			-2.741
223600.000			-21.928			-2.741
223702.000			-21.927			-2.741
223801.000			-21.926			-2.741
223900.000			-21.926			-2.741
224001.000			-21.925			-2.741
224100.000			-21.925			-2.741
224200.000			-21.925			-2.741
224301.000			-21.925			-2.741
224400.000			-21.925			-2.741
224500.000			-21.925			-2.741
224602.000			-21.925			-2.741
224701.000			-21.925			-2.741
224801.000			-21.924			-2.741
224901.000			-21.923			-2.740
225000.000			-21.923			-2.740
225100.000			-21.923			-2.740
225201.000			-21.923			-2.740
225300.000			-21.923			-2.740
225400.000			-21.922			-2.740
225502.000			-21.922			-2.740
225601.000			-21.920			-2.740
225702.000			-21.921			-2.740
225800.000			-21.921			-2.740
225900.000			-21.921			-2.740
226001.000			-21.921			-2.740
226100.000			-21.921			-2.740
226200.000			-21.921			-2.740
226301.000			-21.921			-2.740
226400.000			-21.921			-2.740
226501.000			-21.919			-2.740
226602.000			-21.919			-2.740
226700.000			-21.919			-2.740
226800.000			-21.919			-2.740
226901.000			-21.918			-2.740
227000.000			-21.917			-2.740
227100.000			-21.917			-2.740
227201.000			-21.918			-2.740
227300.000			-21.918			-2.740
227401.000			-21.917			-2.740
227502.000			-21.917			-2.740
227600.000			-21.916			-2.740
227700.000			-21.916			-2.739
227801.000			-21.916			-2.739
227900.000			-21.916			-2.740
228000.000			-21.915			-2.739
228101.000			-21.915			-2.739
228200.000			-21.914			-2.739
228301.000			-21.913			-2.739
228402.000			-21.914			-2.739
228501.000			-21.914			-2.739
228600.000			-21.915			-2.739
228701.000			-21.914			-2.739
228800.000			-21.914			-2.739
228900.000			-21.913			-2.739
229000.000			-21.914			-2.739
229100.000			-21.912			-2.739
229201.000			-21.912			-2.739
229301.000			-21.912			-2.739
229401.000			-21.911			-2.739
229501.000			-21.911			-2.739
229600.000			-21.912			-2.739
229700.000			-21.912			-2.739
229801.000			-21.912			-2.739
229900.000			-21.912			-2.739
230000.000			-21.912			-2.739
230101.000			-21.911			-2.739
230201.000			-21.909			-2.739
230301.000			-21.909			-2.739
230401.000			-21.910			-2.739
230500.000			-21.910			-2.739
230600.000			-21.909			-2.739
230701.000			-21.909			-2.739
230800.000			-21.909			-2.739
230900.000			-21.909			-2.739
231001.000			-21.908			-2.739
231101.000			-21.908			-2.738
231201.000			-21.907			-2.738
231301.000			-21.908			-2.738
231400.000			-21.908			-2.739
231500.000			-21.908			-2.738
231601.000			-21.907			-2.738
231700.000			-21.906			-2.738
231800.000			-21.907			-2.738
231901.000			-21.907			-2.738
232001.000			-21.907			-2.738
232102.000			-21.906			-2.738
232200.000			-21.906			-2.738
232300.000			-21.906			-2.738
232401.000			-21.905			-2.738
232500.000			-21.905			-2.738
232600.000			-21.905			-2.738
232701.000			-21.904			-2.738
232800.000			-21.904			-2.738
232901.000			-21.905			-2.738
233002.000			-21.905			-2.738
233100.000			-21.904			-2.738
233200.000			-21.902			-2.738
233301.000			-21.902			-2.738
233400.000			-21.903			-2.738
233500.000			-21.903			-2.738
233601.000			-21.902			-2.738
233700.000			-21.902			-2.738
233801.000			-21.901			-2.738
233902.000			-21.901			-2.738
234001.000			-21.900			-2.738
234100.000			-21.901			-2.738
234201.000			-21.901			-2.738
234300.000			-21.901			-2.738
234400.000			-21.901			-2.738
234501.000			-21.900			-2.737
234600.000			-21.900			-2.737
234701.000			-21.899			-2.737
234802.000			-21.899			-2.737
234901.000			-21.899			-2.737
235000.000			-21.899			-2.737
235101.000			-21.900			-2.737
235200.000			-21.898			-2.737
235300.000			-21.897			-2.737
235400.000			-21.897			-2.737
235500.000			-21.897			-2.737
235601.000			-21.897			-2.737
235701.000			-21.897			-2.737
235801.000			-21.896			-2.737
235902.000			-21.895			-2.737
236000.000			-21.896			-2.737
236100.000			-21.896			-2.737
236201.000			-21.895			-2.737
236300.000			-21.895			-2.737
236400.000			-21.896			-2.737
236501.000			-21.895			-2.737
236600.000			-21.895			-2.737
236701.000			-21.896			-2.737
236802.000			-21.896			-2.737
236901.000			-21.894			-2.737
237000.000			-21.894			-2.737
237101.000			-21.893			-2.737
237200.000			-21.893			-2.737
237300.000			-21.892			-2.737
237401.000			-21.893			-2.737
237500.000			-21.893			-2.737
237600.000			-21.893			-2.737
237702.000			-21.893			-2.737
237801.000			-21.892			-2.736
237900.000			-21.891			-2.736
238001.000			-21.891			-2.736
238100.000			-21.891			-2.736
238200.000			-21.891			-2.736
238301.000			-21.891			-2.736
238400.000			-21.891			-2.736
238500.000			-21.890			-2.736
238602.000			-21.890			-2.736
238701.000			-21.891			-2.736
238802.000			-21.890			-2.736
238900.000			-21.889			-2.736
239000.000			-21.889			-2.736
239101.000			-21.889			-2.736
239200.000			-21.890			-2.736
239300.000			-21.888			-2.736
239401.000			-21.888			-2.736
239500.000			-21.888			-2.736
239601.000			-21.888			-2.736
239702.000			-21.887			-2.736
239800.000			-21.887			-2.736
239900.000			-21.886			-2.736
240001.000			-21.886			-2.736
240100.000			-21.888			-2.736
240200.000			-21.887			-2.736
240301.000			-21.886			-2.736
240400.000			-21.885			-2.736
240501.000			-21.885			-2.736
240602.000			-21.886			-2.736
240701.000			-21.885			-2.736
240800.000			-21.884			-2.736
240901.000			-21.885			-2.736
241000.000			-21.885			-2.736
241100.000			-21.883			-2.735
241201.000			-21.882			-2.735
241300.000			-21.882			-2.735
241400.000			-21.882			-2.735
241502.000			-21.883			-2.735
241601.000			-21.883			-2.735
241700.000			-21.882			-2.735
241800.000			-21.882			-2.735
241900.000			-21.882			-2.735
242001.000			-21.882			-2.735
242100.000			-21.882			-2.735
242200.000			-21.881			-2.735
242301.000			-21.880			-2.735
242401.000			-21.881			-2.735
242501.000			-21.881			-2.735
242602.000			-21.880			-2.735
242700.000			-21.880			-2.735
242800.000			-21.880			-2.735
242901.000			-21.879			-2.735
243000.000			-21.879			-2.735
243100.000			-21.879			-2.735
243201.000			-21.879			-2.735
243300.000			-21.878			-2.735
243401.000			-21.879			-2.735
243502.000			-21.877			-2.735
243600.000			-21.878			-2.735
243700.000			-21.878			-2.735
243801.000			-21.879			-2.735
243900.000			-21.878			-2.735
244000.000			-21.877			-2.735
244101.000			-21.877			-2.735
244200.000			-21.877			-2.735
244301.000			-21.877			-2.735
244402.000			-21.877			-2.735
244501.000			-21.877			-2.735
244600.000			-21.876			-2.735
244701.000			-21.876			-2.735
244800.000			-21.875			-2.734
244900.000			-21.876			-2.735
245000.000			-21.875			-2.734
245100.000			-21.874			-2.734
245201.000			-21.873			-2.734
245301.000			-21.873			-2.734
245401.000			-21.874			-2.734
245501.000			-21.875			-2.734
245600.000			-21.874			-2.734
245700.000			-21.873			-2.734
245801.000			-21.873			-2.734
245900.000			-21.873			-2.734
246000.000			-21.873			-2.734
246101.000			-21.871			-2.734
246201.000			-21.871			-2.734
246301.000			-21.872			-2.734
246402.000			-21.872			-2.734
246500.000			-21.872			-2.734
246600.000			-21.871			-2.734
246701.000			-21.871			-2.734
246800.000			-21.872			-2.734
246900.000			-21.871			-2.734
247001.000			-21.871			-2.734
247100.000			-21.871			-2.734
247201.000			-21.870			-2.734
247302.000			-21.871			-2.734
247400.000			-21.871			-2.734
247500.000			-21.870			-2.734
247601.000			-21.869			-2.734
247700.000			-21.869			-2.734
247800.000			-21.869			-2.734
247901.000			-21.869			-2.734
248000.000			-21.869			-2.734
248100.000			-21.869			-2.734
248202.000			-21.868			-2.733
248301.000			-21.867			-2.733
248401.000			-21.867			-2.733
248500.000			-21.867			-2.733
248600.000			-21.865			-2.733
248701.000			-21.866			-2.733
248800.000			-21.866			-2.733
248900.000			-21.866			-2.733
249001.000			-21.867			-2.733
249101.000			-21.867			-2.733
249201.000			-21.866			-2.733
249302.000			-21.866			-2.733
249400.000			-21.865			-2.733
249500.000			-21.864			-2.733
249601.000			-21.864			-2.733
249700.000			-21.864			-2.733
249800.000			-21.864			-2.733
249901.000			-21.864			-2.733
250000.000			-21.863			-2.733
250101.000			-21.864			-2.733
250202.000			-21.864			-2.733
250301.000			-21.863			-2.733
250400.000			-21.862			-2.733
250501.000			-21.862			-2.733
250600.000			-21.862			-2.733
250700.000			-21.862			-2.733
250801.000			-21.862			-2.733
250900.000			-21.862			-2.733
251001.000			-21.861			-2.733
251102.000			-21.861			-2.733
251201.000			-21.862			-2.733
251300.000			-21.861			-2.733
251400.000			-21.861			-2.733
251500.000			-21.860			-2.733
251601.000			-21.861			-2.733
251700.000			-21.860			-2.733
251800.000			-21.860			-2.732
251902.000			-21.859			-2.732
252001.000			-21.860			-2.732
252101.000			-21.859			-2.732
252201.000			-21.859			-2.732
252300.000			-21.859			-2.732
252400.000			-21.859			-2.732
252501.000			-21.859			-2.732
252600.000			-21.859			-2.732
252700.000			-21.857			-2.732
252801.000			-21.857			-2.732
252901.000			-21.856			-2.732
253001.000			-21.857			-2.732
253101.000			-21.857			-2.732
253200.000			-21.858			-2.732
253300.000			-21.857			-2.732
253401.000			-21.856			-2.732
253500.000			-21.856			-2.732
253600.000			-21.856			-2.732
253701.000			-21.856			-2.732
253801.000			-21.856			-2.732
253901.000			-21.856			-2.732
254002.000			-21.855			-2.732
254100.000			-21.855			-2.732
254200.000			-21.854			-2.732
254301.000			-21.854			-2.732
254400.000			-21.854			-2.732
254500.000			-21.853			-2.732
254600.000			-21.853			-2.732
254700.000			-21.853			-2.732
254802.000			-21.853			-2.732
254901.000			-21.853			-2.732
255000.000			-21.853			-2.732
255101.000			-21.852			-2.732
255200.000			-21.852			-2.731
255300.000			-21.852			-2.732
255401.000			-21.852			-2.731
255500.000			-21.851			-2.731
255600.000			-21.852			-2.731
255702.000			-21.852			-2.732
255801.000			-21.851			-2.731
255900.000			-21.850			-2.731
256001.000			-21.850			-2.731
256100.000			-21.851			-2.731
256200.000			-21.851			-2.731
256301.000			-21.849			-2.731
256400.000			-21.850			-2.731
256500.000			-21.850			-2.731
256602.000			-21.850			-2.731
256701.000			-21.849			-2.731
256801.000			-21.849			-2.731
256901.000			-21.848			-2.731
257000.000			-21.849			-2.731
257100.000			-21.849			-2.731
257201.000			-21.849			-2.731
257300.000			-21.847			-2.731
257400.000			-21.847			-2.731
257501.000			-21.846			-2.731
257601.000			-21.847			-2.731
257702.000			-21.847			-2.731
257801.000			-21.847			-2.731
257900.000			-21.847			-2.731
258001.000			-21.846			-2.731
258100.000			-21.846			-2.731
258200.000			-21.847			-2.731
258301.000			-21.846			-2.731
258400.000			-21.846			-2.731
258500.000			-21.845			-2.731
258602.000			-21.845			-2.731
258701.000			-21.846			-2.731
258800.000			-21.844			-2.731
258901.000			-21.845			-2.731
259000.000			-21.845			-2.731
259100.000			-21.844			-2.730
259201.000			-21.844			-2.730
259300.000			-21.843			-2.730
259400.000			-21.843			-2.730
259502.000			-21.843			-2.730
259601.000			-21.843			-2.730
259701.000			-21.843			-2.730
259801.000			-21.843			-2.730
259900.000			-21.842			-2.730
260000.000			-21.842			-2.730
260101.000			-21.842			-2.730
260200.000			-21.842			-2.730
260300.000			-21.842			-2.730
260401.000			-21.841			-2.730
260501.000			-21.841			-2.730
260601.000			-21.842			-2.730
260701.000			-21.840			-2.730
260800.000			-21.840			-2.730
260900.000			-21.840			-2.730
261000.000			-21.839			-2.730
261100.000			-21.839			-2.730
261201.000			-21.839			-2.730
261300.000			-21.838			-2.730
261401.000			-21.838			-2.730
261502.000			-21.839			-2.730
261601.000			-21.838			-2.730
261700.000			-21.838			-2.730
261801.000			-21.838			-2.730
261900.000			-21.838			-2.730
262000.000			-21.838			-2.730
262101.000			-21.837			-2.730
262200.000			-21.838			-2.730
262301.000			-21.836			-2.730
262402.000			-21.837			-2.730
262501.000			-21.836			-2.730
262600.000			-21.836			-2.730
262701.000			-21.837			-2.730
262800.000			-21.836			-2.730
262900.000			-21.836			-2.729
263001.000			-21.835			-2.729
263100.000			-21.836			-2.730
263200.000			-21.837			-2.730
263302.000			-21.836			-2.730
263401.000			-21.835			-2.729
263500.000			-21.835			-2.729
263601.000			-21.834			-2.729
263700.000			-21.833			-2.729
263800.000			-21.833			-2.729
263901.000			-21.834			-2.729
264000.000			-21.833			-2.729
264100.000			-21.834			-2.729
264202.000			-21.834			-2.729
264301.000			-21.834			-2.729
264401.000			-21.834			-2.729
264500.000			-21.833			-2.729
264600.000			-21.832			-2.729
264701.000			-21.830			-2.729
264800.000			-21.831			-2.729
264900.000			-21.831			-2.729
265001.000			-21.831			-2.729
265101.000			-21.831			-2.729
265201.000			-21.831			-2.729
265302.000			-21.830			-2.729
265400.000			-21.831			-2.729
265500.000			-21.831			-2.729
265601.000			-21.831			-2.729
265700.000			-21.830			-2.729
265800.000			-21.830			-2.729
265901.000			-21.829			-2.729
266001.000			-21.829			-2.729
266101.000			-21.829			-2.729
266202.000			-21.829			-2.729
266300.000			-21.830			-2.729
266400.000			-21.829			-2.729
266501.000			-21.828			-2.729
266600.000			-21.828			-2.728
266700.000			-21.828			-2.728
266801.000			-21.827			-2.728
266900.000			-21.828			-2.728
267001.000			-21.828			-2.728
267102.000			-21.826			-2.728
267201.000			-21.827			-2.728
267300.000			-21.826			-2.728
267400.000			-21.826			-2.728
267500.000			-21.826			-2.728
267601.000			-21.825			-2.728
267700.000			-21.824			-2.728
267800.000			-21.824			-2.728
267901.000			-21.825			-2.728
268001.000			-21.825			-2.728
268101.000			-21.824			-2.728
268201.000			-21.823			-2.728
268300.000			-21.824			-2.728
268400.000			-21.824			-2.728
268501.000			-21.823			-2.728
268600.000			-21.822			-2.728
268700.000			-21.824			-2.728
268801.000			-21.824			-2.728
268901.000			-21.823			-2.728
269001.000			-21.822			-2.728
269102.000			-21.822			-2.728
269200.000			-21.821			-2.728
269300.000			-21.821			-2.728
269401.000			-21.821			-2.728
269500.000			-21.821			-2.728
269600.000			-21.821			-2.728
269701.000			-21.821			-2.728
269801.000			-21.821			-2.728
269901.000			-21.822			-2.728
270002.000			-21.820			-2.728
270100.000			-21.821			-2.728
270200.000			-21.820			-2.728
270301.000			-21.820			-2.727
270400.000			-21.821			-2.728
270500.000			-21.820			-2.727
270600.000			-21.819			-2.727
270700.000			-21.818			-2.727
270802.000			-21.819			-2.727
270901.000			-21.819			-2.727
271000.000			-21.819			-2.727
271101.000			-21.818			-2.727
271200.000			-21.818			-2.727
271300.000			-21.816			-2.727
271401.000			-21.817			-2.727
271500.000			-21.817			-2.727
271600.000			-21.817			-2.727
271702.000			-21.817			-2.727
271801.000			-21.816			-2.727
271900.000			-21.816			-2.727
272001.000			-21.816			-2.727
272100.000			-21.816			-2.727
272200.000			-21.816			-2.727
272301.000			-21.816			-2.727
272400.000			-21.815			-2.727
272500.000			-21.814			-2.727
272602.000			-21.814			-2.727
272701.000			-21.814			-2.727
272800.000			-21.814			-2.727
272901.000			-21.814			-2.727
273000.000			-21.814			-2.727
273100.000			-21.814			-2.727
273201.000			-21.814			-2.727
273300.000			-21.814			-2.727
273400.000			-21.813			-2.727
273502.000			-21.813			-2.727
273601.000			-21.814			-2.727
273702.000			-21.812			-2.727
273800.000			-21.812			-2.726
273900.000			-21.812			-2.727
274001.000			-21.813			-2.727
274100.000			-21.812			-2.727
274200.000			-21.813			-2.727
274301.000			-21.812			-2.727
274401.000			-21.811			-2.726
274501.000			-21.813			-2.727
274601.000			-21.811			-2.726
274700.000			-21.810			-2.726
274800.000			-21.810			-2.726
274901.000			-21.811			-2.726
275000.000			-21.811			-2.726
275100.000			-21.810			-2.726
275201.000			-21.810			-2.726
275301.000			-21.810			-2.726
275401.000			-21.810			-2.726
275501.000			-21.810			-2.726
275600.000			-21.810			-2.726
275700.000			-21.810			-2.726
275801.000			-21.809			-2.726
275900.000			-21.809			-2.726
276000.000			-21.808			-2.726
276101.000			-21.808			-2.726
276201.000			-21.808			-2.726
276301.000			-21.808			-2.726
276402.000			-21.808			-2.726
276500.000			-21.807			-2.726
276600.000			-21.806			-2.726
276701.000			-21.807			-2.726
276800.000			-21.806			-2.726
276900.000			-21.805			-2.726
277000.000			-21.805			-2.726
277100.000			-21.804			-2.726
277202.000			-21.805			-2.726
277301.000			-21.806			-2.726
277400.000			-21.804			-2.726
277501.000			-21.805			-2.726
277600.000			-21.804			-2.726
277700.000			-21.805			-2.726
277801.000			-21.804			-2.726
277900.000			-21.804			-2.726
278000.000			-21.804			-2.725
278102.000			-21.803			-2.725
278201.000			-21.802			-2.725
278301.000			-21.802			-2.725
278401.000			-21.803			-2.725
278500.000			-21.803			-2.725
278600.000			-21.803			-2.725
278701.000			-21.803			-2.725
278800.000			-21.802			-2.725
278900.000			-21.803			-2.725
279002.000			-21.803			-2.725
279101.000			-21.801			-2.725
279201.000			-21.800			-2.725
279301.000			-21.800			-2.725
279400.000			-21.801			-2.725
279500.000			-21.800			-2.725
279601.000			-21.800			-2.725
279700.000			-21.799			-2.725
279800.000			-21.801			-2.725
279901.000			-21.800			-2.725
280001.000			-21.799			-2.725
280102.000			-21.800			-2.725
280201.000			-21.800			-2.725
280300.000			-21.798			-2.725
280401.000			-21.798			-2.725
280500.000			-21.799			-2.725
280600.000			-21.799			-2.725
280701.000			-21.798			-2.725
280800.000			-21.798			-2.725
280900.000			-21.798			-2.725
281002.000			-21.797			-2.725
281101.000			-21.798			-2.725
281200.000			-21.798			-2.725
281301.000			-21.798			-2.725
281400.000			-21.797			-2.725
281500.000			-21.797			-2.725
281601.000			-21.797			-2.725
281700.000			-21.796			-2.725
281800.000			-21.797			-2.725
281902.000			-21.796			-2.724
282001.000			-21.796			-2.724
282101.000			-21.796			-2.724
282201.000			-21.796			-2.725
282300.000			-21.796			-2.724
282400.000			-21.795			-2.724
282501.000			-21.794			-2.724
282600.000			-21.794			-2.724
282700.000			-21.794			-2.724
282802.000			-21.793			-2.724
282901.000			-21.793			-2.724
283001.000			-21.793			-2.724
283101.000			-21.793			-2.724
283200.000			-21.793			-2.724
283300.000			-21.794			-2.724
283400.000			-21.793			-2.724
283500.000			-21.792			-2.724
283601.000			-21.793			-2.724
283700.000			-21.793			-2.724
283801.000			-21.792			-2.724
283902.000			-21.792			-2.724
284001.000			-21.792			-2.724
284100.000			-21.792			-2.724
284201.000			-21.792			-2.724
284300.000			-21.791			-2.724
284400.000			-21.791			-2.724
284501.000			-21.791			-2.724
284600.000			-21.790			-2.724
284700.000			-21.789			-2.724
284802.000			-21.790			-2.724
284901.000			-21.790			-2.724
285000.000			-21.789			-2.724
285101.000			-21.790			-2.724
285200.000			-21.790			-2.724
285300.000			-21.789			-2.724
285401.000			-21.789			-2.724
285500.000			-21.788			-2.724
285600.000			-21.787			-2.723
285702.000			-21.788			-2.724
285801.000			-21.788			-2.723
285901.000			-21.788			-2.723
286001.000			-21.788			-2.723
286100.000			-21.787			-2.723
286200.000			-21.788			-2.724
286301.000			-21.788			-2.724
286400.000			-21.788			-2.723
286500.000			-21.787			-2.723
286600.000			-21.787			-2.723
286701.000			-21.788			-2.724
286802.000			-21.786			-2.723
286901.000			-21.786			-2.723
287000.000			-21.785			-2.723
287101.000			-21.786			-2.723
287200.000			-21.785			-2.723
287300.000			-21.785			-2.723
287401.000			-21.785			-2.723
287500.000			-21.785			-2.723
287600.000			-21.784			-2.723
287702.000			-21.784			-2.723
287801.000			-21.785			-2.723
287900.000			-21.784			-2.723
288001.000			-21.784			-2.723
288100.000			-21.784			-2.723
288200.000			-21.783			-2.723
288301.000			-21.783			-2.723
288400.000			-21.783			-2.723
288500.000			-21.782			-2.723
288602.000			-21.782			-2.723
288701.000			-21.783			-2.723
288801.000			-21.783			-2.723
288901.000			-21.782			-2.723
289000.000			-21.782			-2.723
289100.000			-21.782			-2.723
289201.000			-21.782			-2.723
289300.000			-21.782			-2.723
289400.000			-21.781			-2.723
289501.000			-21.781			-2.723
289601.000			-21.781			-2.723
289702.000			-21.780			-2.722
289801.000			-21.780			-2.722
289900.000			-21.781			-2.723
290001.000			-21.780			-2.722
290100.000			-21.779			-2.722
290200.000			-21.779			-2.722
290301.000			-21.779			-2.722
290400.000			-21.779			-2.722
290500.000			-21.779			-2.722
290602.000			-21.779			-2.722
290701.000			-21.778			-2.722
290800.000			-21.778			-2.722
290901.000			-21.778			-2.722
291000.000			-21.778			-2.722
291100.000			-21.777			-2.722
291201.000			-21.778			-2.722
291300.000			-21.778			-2.722
291400.000			-21.777			-2.722
291502.000			-21.777			-2.722
291601.000			-21.776			-2.722
291701.000			-21.776			-2.722
291801.000			-21.778			-2.722
291900.000			-21.778			-2.722
292000.000			-21.778			-2.722
292101.000			-21.777			-2.722
292200.000			-21.777			-2.722
292300.000			-21.776			-2.722
292401.000			-21.776			-2.722
292501.000			-21.776			-2.722
292601.000			-21.776			-2.722
292701.000			-21.775			-2.722
292800.000			-21.774			-2.722
292900.000			-21.775			-2.722
293000.000			-21.774			-2.722
293100.000			-21.774			-2.722
293201.000			-21.774			-2.722
293300.000			-21.774			-2.722
293401.000			-21.773			-2.722
293502.000			-21.773			-2.722
293601.000			-21.773			-2.722
293700.000			-21.773			-2.722
293801.000			-21.773			-2.722
293900.000			-21.773			-2.722
294000.000			-21.771			-2.721
294101.000			-21.771			-2.721
294200.000			-21.773			-2.722
294300.000			-21.772			-2.722
294402.000			-21.772			-2.721
294501.000			-21.772			-2.722
294600.000			-21.771			-2.721
294701.000			-21.771			-2.721
294800.000			-21.771			-2.721
294900.000			-21.771			-2.721
295001.000			-21.771			-2.721
295100.000			-21.772			-2.721
295200.000			-21.772			-2.721
295302.000			-21.770			-2.721
295401.000			-21.770			-2.721
295501.000			-21.770			-2.721
295601.000			-21.769			-2.721
295700.000			-21.770			-2.721
295800.000			-21.770			-2.721
295901.000			-21.769			-2.721
296000.000			-21.769			-2.721
296100.000			-21.768			-2.721
296200.000			-21.768			-2.721
296301.000			-21.768			-2.721
296402.000			-21.767			-2.721
296501.000			-21.767			-2.721
296600.000			-21.767			-2.721
296701.000			-21.767			-2.721
296800.000			-21.767			-2.721
296900.000			-21.768			-2.721
297001.000			-21.768			-2.721
297100.000			-21.766			-2.721
297200.000			-21.766			-2.721
297302.000			-21.766			-2.721
297401.000			-21.767			-2.721
297501.000			-21.767			-2.721
297601.000			-21.765			-2.721
297700.000			-21.764			-2.721
297800.000			-21.765			-2.721
297901.000			-21.765			-2.721
298000.000			-21.764			-2.721
298100.000			-21.765			-2.721
298201.000			-21.764			-2.721
298301.000			-21.764			-2.721
298401.000			-21.763			-2.720
298501.000			-21.763			-2.720
298600.000			-21.763			-2.720
298700.000			-21.763			-2.720
298801.000			-21.763			-2.720
298900.000			-21.763			-2.720
299000.000			-21.763			-2.720
299101.000			-21.762			-2.720
299201.000			-21.761			-2.720
299302.000			-21.761			-2.720
299401.000			-21.762			-2.720
299500.000			-21.762			-2.720
299601.000			-21.761			-2.720
299700.000			-21.760			-2.720
299800.000			-21.761			-2.720
299901.000			-21.761			-2.720
