# Acquired on 09/01/2024 15:40:27 
# SPIDER: Creep_-8mm_0771453C
# CREEP MEASUREMENT

# time [ms]		force [N]		stiffness [N/mm]
0.000			35.116			-4.389
100.000			36.872			-4.609
200.000			37.493			-4.687
302.000			37.409			-4.676
401.000			37.252			-4.656
501.000			37.142			-4.643
600.000			36.978			-4.622
700.000			36.912			-4.614
801.000			36.854			-4.607
900.000			36.802			-4.600
1001.000			36.755			-4.594
1102.000			36.712			-4.589
1200.000			36.671			-4.584
1300.000			36.598			-4.575
1401.000			36.565			-4.571
1500.000			36.534			-4.567
1600.000			36.505			-4.563
1701.000			36.478			-4.560
1801.000			36.451			-4.556
1901.000			36.425			-4.553
2001.000			36.402			-4.550
2100.000			36.358			-4.545
2200.000			36.337			-4.542
2301.000			36.316			-4.540
2400.000			36.296			-4.537
2501.000			36.276			-4.535
2602.000			36.256			-4.532
2700.000			36.239			-4.530
2800.000			36.206			-4.526
2901.000			36.190			-4.524
3000.000			36.174			-4.522
3100.000			36.158			-4.520
3201.000			36.144			-4.518
3301.000			36.129			-4.516
3401.000			36.115			-4.514
3501.000			36.088			-4.511
3600.000			36.075			-4.509
3701.000			36.062			-4.508
3800.000			36.050			-4.506
3900.000			36.038			-4.505
4001.000			36.027			-4.503
4101.000			36.014			-4.502
4201.000			35.990			-4.499
4301.000			35.980			-4.497
4400.000			35.970			-4.496
4500.000			35.959			-4.495
4601.000			35.948			-4.493
4700.000			35.938			-4.492
4801.000			35.928			-4.491
4902.000			35.917			-4.490
5001.000			35.899			-4.487
5100.000			35.889			-4.486
5201.000			35.879			-4.485
5300.000			35.871			-4.484
5400.000			35.863			-4.483
5501.000			35.854			-4.482
5601.000			35.844			-4.481
5701.000			35.827			-4.478
5801.000			35.820			-4.477
5900.000			35.811			-4.476
6000.000			35.804			-4.475
6101.000			35.797			-4.475
6200.000			35.788			-4.474
6300.000			35.779			-4.472
6402.000			35.764			-4.471
6501.000			35.757			-4.470
6600.000			35.750			-4.469
6701.000			35.743			-4.468
6800.000			35.736			-4.467
6901.000			35.730			-4.466
7000.000			35.722			-4.465
7100.000			35.715			-4.464
7202.000			35.702			-4.463
7301.000			35.696			-4.462
7400.000			35.689			-4.461
7501.000			35.683			-4.460
7600.000			35.676			-4.459
7700.000			35.670			-4.459
7801.000			35.664			-4.458
7900.000			35.651			-4.456
8001.000			35.645			-4.456
8102.000			35.639			-4.455
8200.000			35.633			-4.454
8300.000			35.627			-4.453
8401.000			35.622			-4.453
8500.000			35.616			-4.452
8600.000			35.605			-4.451
8701.000			35.600			-4.450
8801.000			35.593			-4.449
8901.000			35.588			-4.449
9001.000			35.584			-4.448
9100.000			35.577			-4.447
9200.000			35.572			-4.447
9301.000			35.562			-4.445
9400.000			35.557			-4.445
9500.000			35.551			-4.444
9602.000			35.547			-4.443
9701.000			35.542			-4.443
9800.000			35.536			-4.442
9901.000			35.532			-4.441
10000.000			35.528			-4.441
10101.000			35.517			-4.440
10200.000			35.513			-4.439
10300.000			35.509			-4.439
10402.000			35.504			-4.438
10501.000			35.498			-4.437
10600.000			35.493			-4.437
10701.000			35.488			-4.436
10800.000			35.480			-4.435
10900.000			35.476			-4.435
11001.000			35.473			-4.434
11100.000			35.468			-4.433
11201.000			35.462			-4.433
11302.000			35.459			-4.432
11400.000			35.455			-4.432
11500.000			35.446			-4.431
11601.000			35.442			-4.430
11700.000			35.438			-4.430
11800.000			35.433			-4.429
11901.000			35.429			-4.429
12001.000			35.425			-4.428
12101.000			35.422			-4.428
12201.000			35.413			-4.427
12300.000			35.409			-4.426
12400.000			35.406			-4.426
12501.000			35.402			-4.425
12600.000			35.398			-4.425
12700.000			35.395			-4.424
12802.000			35.391			-4.424
12901.000			35.387			-4.423
13000.000			35.381			-4.423
13101.000			35.376			-4.422
13200.000			35.372			-4.422
13301.000			35.369			-4.421
13400.000			35.364			-4.421
13500.000			35.361			-4.420
13602.000			35.358			-4.420
13701.000			35.350			-4.419
13800.000			35.347			-4.418
13901.000			35.343			-4.418
14000.000			35.340			-4.418
14100.000			35.337			-4.417
14201.000			35.333			-4.417
14300.000			35.329			-4.416
14401.000			35.322			-4.415
14502.000			35.319			-4.415
14600.000			35.316			-4.414
14700.000			35.312			-4.414
14801.000			35.308			-4.413
14900.000			35.306			-4.413
15000.000			35.302			-4.413
15101.000			35.299			-4.412
15201.000			35.293			-4.412
15301.000			35.289			-4.411
15401.000			35.286			-4.411
15500.000			35.284			-4.410
15600.000			35.280			-4.410
15701.000			35.277			-4.410
15800.000			35.275			-4.409
15900.000			35.268			-4.409
16002.000			35.265			-4.408
16101.000			35.262			-4.408
16200.000			35.260			-4.407
16301.000			35.256			-4.407
16400.000			35.254			-4.407
16501.000			35.251			-4.406
16600.000			35.243			-4.405
16700.000			35.241			-4.405
16802.000			35.238			-4.405
16901.000			35.236			-4.404
17000.000			35.232			-4.404
17101.000			35.230			-4.404
17200.000			35.227			-4.403
17300.000			35.222			-4.403
17401.000			35.220			-4.403
17500.000			35.217			-4.402
17601.000			35.213			-4.402
17702.000			35.211			-4.401
17800.000			35.208			-4.401
17900.000			35.205			-4.401
18001.000			35.202			-4.400
18100.000			35.198			-4.400
18200.000			35.195			-4.399
18301.000			35.193			-4.399
18401.000			35.190			-4.399
18501.000			35.186			-4.398
18601.000			35.183			-4.398
18700.000			35.181			-4.398
18800.000			35.177			-4.397
18901.000			35.174			-4.397
19000.000			35.171			-4.396
19100.000			35.168			-4.396
19202.000			35.165			-4.396
19301.000			35.163			-4.395
19400.000			35.160			-4.395
19501.000			35.156			-4.394
19600.000			35.152			-4.394
19701.000			35.151			-4.394
19800.000			35.148			-4.394
19900.000			35.146			-4.393
20002.000			35.144			-4.393
20101.000			35.140			-4.393
20200.000			35.135			-4.392
20301.000			35.133			-4.392
20400.000			35.130			-4.391
20500.000			35.129			-4.391
20601.000			35.126			-4.391
20700.000			35.123			-4.390
20801.000			35.121			-4.390
20902.000			35.119			-4.390
21000.000			35.113			-4.389
21100.000			35.112			-4.389
21201.000			35.110			-4.389
21300.000			35.107			-4.388
21400.000			35.104			-4.388
21502.000			35.102			-4.388
21601.000			35.101			-4.388
21700.000			35.097			-4.387
21801.000			35.094			-4.387
21900.000			35.093			-4.387
22000.000			35.090			-4.386
22101.000			35.088			-4.386
22200.000			35.087			-4.386
22301.000			35.084			-4.386
22402.000			35.079			-4.385
22500.000			35.078			-4.385
22600.000			35.076			-4.384
22701.000			35.074			-4.384
22800.000			35.070			-4.384
22901.000			35.068			-4.383
23000.000			35.067			-4.383
23101.000			35.062			-4.383
23202.000			35.060			-4.382
23300.000			35.058			-4.382
23400.000			35.056			-4.382
23501.000			35.054			-4.382
23600.000			35.051			-4.381
23700.000			35.049			-4.381
23801.000			35.047			-4.381
23901.000			35.044			-4.381
24001.000			35.042			-4.380
24101.000			35.039			-4.380
24200.000			35.037			-4.380
24300.000			35.035			-4.379
24401.000			35.033			-4.379
24500.000			35.030			-4.379
24600.000			35.028			-4.378
24702.000			35.025			-4.378
24801.000			35.024			-4.378
24900.000			35.022			-4.378
25001.000			35.020			-4.377
25100.000			35.018			-4.377
25200.000			35.016			-4.377
25301.000			35.011			-4.376
25400.000			35.010			-4.376
25501.000			35.007			-4.376
25602.000			35.005			-4.376
25700.000			35.003			-4.375
25800.000			35.002			-4.375
25901.000			35.000			-4.375
26000.000			34.998			-4.375
26101.000			34.995			-4.374
26200.000			34.992			-4.374
26301.000			34.990			-4.374
26402.000			34.988			-4.374
26500.000			34.986			-4.373
26600.000			34.985			-4.373
26701.000			34.983			-4.373
26800.000			34.979			-4.372
26900.000			34.977			-4.372
27001.000			34.975			-4.372
27101.000			34.974			-4.372
27201.000			34.972			-4.372
27301.000			34.969			-4.371
27400.000			34.969			-4.371
27500.000			34.965			-4.371
27601.000			34.963			-4.370
27700.000			34.960			-4.370
27800.000			34.959			-4.370
27902.000			34.958			-4.370
28001.000			34.957			-4.370
28101.000			34.955			-4.369
28201.000			34.951			-4.369
28300.000			34.948			-4.368
28400.000			34.947			-4.368
28501.000			34.946			-4.368
28600.000			34.944			-4.368
28700.000			34.942			-4.368
28802.000			34.940			-4.368
28901.000			34.939			-4.367
29000.000			34.936			-4.367
29101.000			34.933			-4.367
29200.000			34.932			-4.366
29301.000			34.931			-4.366
29400.000			34.929			-4.366
29500.000			34.927			-4.366
29602.000			34.925			-4.366
29701.000			34.922			-4.365
29800.000			34.921			-4.365
29901.000			34.918			-4.365
30000.000			34.916			-4.365
30100.000			34.915			-4.364
30201.000			34.914			-4.364
30300.000			34.913			-4.364
30401.000			34.909			-4.364
30502.000			34.907			-4.363
30600.000			34.905			-4.363
30700.000			34.904			-4.363
30801.000			34.903			-4.363
30900.000			34.901			-4.363
31000.000			34.898			-4.362
31101.000			34.896			-4.362
31201.000			34.895			-4.362
31301.000			34.892			-4.362
31401.000			34.890			-4.361
31500.000			34.889			-4.361
31600.000			34.888			-4.361
31701.000			34.886			-4.361
31800.000			34.885			-4.361
31900.000			34.883			-4.360
32002.000			34.881			-4.360
32101.000			34.879			-4.360
32200.000			34.877			-4.360
32301.000			34.875			-4.359
32400.000			34.873			-4.359
32501.000			34.872			-4.359
32600.000			34.868			-4.359
32700.000			34.867			-4.358
32802.000			34.865			-4.358
32901.000			34.865			-4.358
33000.000			34.863			-4.358
33101.000			34.862			-4.358
33200.000			34.860			-4.358
33300.000			34.857			-4.357
33401.000			34.855			-4.357
33500.000			34.855			-4.357
33601.000			34.853			-4.357
33702.000			34.851			-4.356
33801.000			34.850			-4.356
33900.000			34.849			-4.356
34001.000			34.845			-4.356
34100.000			34.845			-4.356
34200.000			34.843			-4.355
34301.000			34.843			-4.355
34401.000			34.841			-4.355
34501.000			34.838			-4.355
34602.000			34.837			-4.355
34700.000			34.835			-4.354
34800.000			34.833			-4.354
34901.000			34.831			-4.354
35000.000			34.829			-4.354
35100.000			34.828			-4.353
35201.000			34.827			-4.353
35301.000			34.825			-4.353
35401.000			34.824			-4.353
35501.000			34.821			-4.353
35600.000			34.820			-4.352
35701.000			34.819			-4.352
35800.000			34.817			-4.352
35900.000			34.816			-4.352
36001.000			34.814			-4.352
36101.000			34.813			-4.352
36201.000			34.811			-4.351
36301.000			34.810			-4.351
36400.000			34.808			-4.351
36500.000			34.807			-4.351
36601.000			34.805			-4.351
36700.000			34.804			-4.351
36800.000			34.803			-4.350
36902.000			34.799			-4.350
37001.000			34.798			-4.350
37100.000			34.797			-4.350
37201.000			34.795			-4.349
37300.000			34.793			-4.349
37400.000			34.791			-4.349
37501.000			34.791			-4.349
37600.000			34.789			-4.349
37701.000			34.787			-4.348
37802.000			34.787			-4.348
37900.000			34.786			-4.348
38000.000			34.784			-4.348
38101.000			34.782			-4.348
38200.000			34.780			-4.347
38300.000			34.778			-4.347
38401.000			34.777			-4.347
38501.000			34.775			-4.347
38601.000			34.774			-4.347
38702.000			34.773			-4.347
38800.000			34.771			-4.346
38901.000			34.770			-4.346
39000.000			34.768			-4.346
39100.000			34.765			-4.346
39201.000			34.764			-4.346
39300.000			34.763			-4.345
39401.000			34.762			-4.345
39502.000			34.762			-4.345
39600.000			34.761			-4.345
39700.000			34.758			-4.345
39801.000			34.757			-4.345
39900.000			34.755			-4.344
40000.000			34.755			-4.344
40101.000			34.753			-4.344
40201.000			34.752			-4.344
40301.000			34.750			-4.344
40401.000			34.749			-4.344
40500.000			34.748			-4.344
40600.000			34.746			-4.343
40701.000			34.745			-4.343
40800.000			34.743			-4.343
40900.000			34.742			-4.343
41002.000			34.741			-4.343
41101.000			34.739			-4.342
41200.000			34.737			-4.342
41301.000			34.734			-4.342
41400.000			34.734			-4.342
41500.000			34.733			-4.342
41601.000			34.731			-4.341
41700.000			34.730			-4.341
41801.000			34.729			-4.341
41902.000			34.728			-4.341
42000.000			34.726			-4.341
42101.000			34.724			-4.341
42200.000			34.723			-4.340
42300.000			34.722			-4.340
42401.000			34.721			-4.340
42500.000			34.720			-4.340
42601.000			34.719			-4.340
42702.000			34.719			-4.340
42800.000			34.716			-4.339
42900.000			34.715			-4.339
43001.000			34.713			-4.339
43100.000			34.711			-4.339
43200.000			34.710			-4.339
43301.000			34.709			-4.339
43401.000			34.709			-4.339
43501.000			34.707			-4.338
43601.000			34.705			-4.338
43700.000			34.705			-4.338
43800.000			34.703			-4.338
43901.000			34.701			-4.338
44000.000			34.701			-4.338
44100.000			34.699			-4.337
44202.000			34.698			-4.337
44301.000			34.697			-4.337
44400.000			34.695			-4.337
44501.000			34.693			-4.337
44600.000			34.692			-4.337
44700.000			34.691			-4.336
44801.000			34.690			-4.336
44900.000			34.689			-4.336
45001.000			34.687			-4.336
45102.000			34.686			-4.336
45200.000			34.685			-4.336
45301.000			34.683			-4.335
45400.000			34.683			-4.335
45500.000			34.681			-4.335
45601.000			34.680			-4.335
45700.000			34.677			-4.335
45801.000			34.676			-4.335
45902.000			34.675			-4.334
46000.000			34.674			-4.334
46100.000			34.674			-4.334
46201.000			34.672			-4.334
46300.000			34.670			-4.334
46400.000			34.668			-4.334
46501.000			34.668			-4.334
46601.000			34.667			-4.333
46701.000			34.667			-4.333
46801.000			34.666			-4.333
46900.000			34.664			-4.333
47000.000			34.662			-4.333
47101.000			34.662			-4.333
47200.000			34.660			-4.332
47300.000			34.659			-4.332
47401.000			34.658			-4.332
47501.000			34.656			-4.332
47601.000			34.655			-4.332
47701.000			34.654			-4.332
47800.000			34.652			-4.331
47900.000			34.652			-4.331
48001.000			34.651			-4.331
48100.000			34.650			-4.331
48200.000			34.648			-4.331
48302.000			34.648			-4.331
48401.000			34.647			-4.331
48501.000			34.645			-4.331
48600.000			34.643			-4.330
48700.000			34.642			-4.330
48801.000			34.642			-4.330
48900.000			34.641			-4.330
49000.000			34.640			-4.330
49102.000			34.639			-4.330
49201.000			34.638			-4.330
49300.000			34.635			-4.329
49401.000			34.635			-4.329
49500.000			34.632			-4.329
49600.000			34.632			-4.329
49701.000			34.632			-4.329
49800.000			34.631			-4.329
49901.000			34.630			-4.329
50002.000			34.627			-4.328
50100.000			34.627			-4.328
50200.000			34.626			-4.328
50301.000			34.625			-4.328
50400.000			34.624			-4.328
50500.000			34.622			-4.328
50601.000			34.621			-4.328
50701.000			34.621			-4.328
50801.000			34.619			-4.327
50901.000			34.618			-4.327
51000.000			34.617			-4.327
51100.000			34.615			-4.327
51201.000			34.615			-4.327
51300.000			34.614			-4.327
51400.000			34.613			-4.327
51502.000			34.611			-4.326
51601.000			34.610			-4.326
51701.000			34.609			-4.326
51800.000			34.607			-4.326
51900.000			34.607			-4.326
52001.000			34.606			-4.326
52100.000			34.605			-4.326
52200.000			34.604			-4.325
52302.000			34.602			-4.325
52401.000			34.601			-4.325
52500.000			34.599			-4.325
52601.000			34.599			-4.325
52700.000			34.598			-4.325
52800.000			34.598			-4.325
52901.000			34.595			-4.324
53000.000			34.593			-4.324
53101.000			34.593			-4.324
53202.000			34.593			-4.324
53300.000			34.592			-4.324
53400.000			34.591			-4.324
53501.000			34.590			-4.324
53600.000			34.589			-4.324
53700.000			34.587			-4.323
53801.000			34.586			-4.323
53901.000			34.585			-4.323
54001.000			34.584			-4.323
54102.000			34.583			-4.323
54200.000			34.583			-4.323
54300.000			34.581			-4.323
54401.000			34.580			-4.322
54500.000			34.580			-4.322
54600.000			34.578			-4.322
54701.000			34.577			-4.322
54801.000			34.576			-4.322
54902.000			34.575			-4.322
55000.000			34.574			-4.322
55100.000			34.572			-4.322
55201.000			34.572			-4.321
55300.000			34.571			-4.321
55400.000			34.570			-4.321
55501.000			34.569			-4.321
55601.000			34.568			-4.321
55701.000			34.567			-4.321
55801.000			34.565			-4.321
55900.000			34.564			-4.321
56000.000			34.564			-4.321
56101.000			34.562			-4.320
56200.000			34.560			-4.320
56300.000			34.560			-4.320
56402.000			34.561			-4.320
56501.000			34.560			-4.320
56600.000			34.558			-4.320
56701.000			34.557			-4.320
56800.000			34.556			-4.319
56900.000			34.556			-4.320
57001.000			34.555			-4.319
57100.000			34.554			-4.319
57201.000			34.552			-4.319
57302.000			34.550			-4.319
57401.000			34.550			-4.319
57500.000			34.549			-4.319
57601.000			34.548			-4.319
57700.000			34.547			-4.318
57800.000			34.545			-4.318
57901.000			34.544			-4.318
58000.000			34.544			-4.318
58102.000			34.543			-4.318
58201.000			34.542			-4.318
58300.000			34.541			-4.318
58401.000			34.541			-4.318
58500.000			34.538			-4.317
58600.000			34.537			-4.317
58701.000			34.538			-4.317
58800.000			34.537			-4.317
58901.000			34.535			-4.317
59002.000			34.534			-4.317
59100.000			34.534			-4.317
59200.000			34.533			-4.317
59301.000			34.532			-4.316
59400.000			34.531			-4.316
59500.000			34.529			-4.316
59601.000			34.528			-4.316
59701.000			34.528			-4.316
59801.000			34.526			-4.316
59901.000			34.525			-4.316
60000.000			34.525			-4.316
60100.000			34.524			-4.315
60201.000			34.522			-4.315
60300.000			34.521			-4.315
60400.000			34.520			-4.315
60502.000			34.519			-4.315
60601.000			34.519			-4.315
60700.000			34.518			-4.315
60801.000			34.517			-4.315
60900.000			34.517			-4.315
61000.000			34.516			-4.314
61101.000			34.515			-4.314
61200.000			34.513			-4.314
61302.000			34.512			-4.314
61401.000			34.513			-4.314
61500.000			34.511			-4.314
61601.000			34.508			-4.314
61700.000			34.508			-4.314
61800.000			34.508			-4.314
61901.000			34.507			-4.313
62000.000			34.507			-4.313
62101.000			34.505			-4.313
62202.000			34.505			-4.313
62300.000			34.505			-4.313
62400.000			34.502			-4.313
62501.000			34.501			-4.313
62600.000			34.501			-4.313
62700.000			34.501			-4.313
62802.000			34.499			-4.312
62901.000			34.499			-4.312
63001.000			34.497			-4.312
63101.000			34.496			-4.312
63200.000			34.495			-4.312
63300.000			34.494			-4.312
63401.000			34.493			-4.312
63500.000			34.492			-4.311
63600.000			34.490			-4.311
63702.000			34.489			-4.311
63801.000			34.489			-4.311
63900.000			34.488			-4.311
64001.000			34.487			-4.311
64100.000			34.486			-4.311
64200.000			34.487			-4.311
64301.000			34.485			-4.311
64400.000			34.485			-4.311
64502.000			34.484			-4.310
64601.000			34.483			-4.310
64700.000			34.482			-4.310
64801.000			34.480			-4.310
64900.000			34.479			-4.310
65000.000			34.478			-4.310
65101.000			34.478			-4.310
65200.000			34.477			-4.310
65301.000			34.475			-4.309
65402.000			34.474			-4.309
65501.000			34.474			-4.309
65600.000			34.473			-4.309
65701.000			34.473			-4.309
65800.000			34.472			-4.309
65900.000			34.471			-4.309
66001.000			34.469			-4.309
66100.000			34.469			-4.309
66201.000			34.468			-4.309
66302.000			34.467			-4.308
66400.000			34.466			-4.308
66500.000			34.465			-4.308
66601.000			34.464			-4.308
66700.000			34.464			-4.308
66800.000			34.463			-4.308
66901.000			34.462			-4.308
67001.000			34.462			-4.308
67101.000			34.461			-4.308
67201.000			34.460			-4.308
67300.000			34.459			-4.307
67400.000			34.460			-4.307
67501.000			34.457			-4.307
67600.000			34.457			-4.307
67701.000			34.455			-4.307
67801.000			34.455			-4.307
67901.000			34.454			-4.307
68001.000			34.453			-4.307
68100.000			34.453			-4.307
68200.000			34.452			-4.307
68301.000			34.451			-4.306
68400.000			34.450			-4.306
68500.000			34.449			-4.306
68602.000			34.448			-4.306
68701.000			34.446			-4.306
68801.000			34.446			-4.306
68901.000			34.445			-4.306
69000.000			34.444			-4.306
69100.000			34.443			-4.305
69201.000			34.442			-4.305
69300.000			34.441			-4.305
69400.000			34.441			-4.305
69502.000			34.440			-4.305
69601.000			34.439			-4.305
69700.000			34.439			-4.305
69801.000			34.438			-4.305
69900.000			34.437			-4.305
70000.000			34.436			-4.304
70101.000			34.434			-4.304
70200.000			34.434			-4.304
70301.000			34.433			-4.304
70402.000			34.433			-4.304
70500.000			34.433			-4.304
70600.000			34.432			-4.304
70701.000			34.431			-4.304
70800.000			34.429			-4.304
70901.000			34.429			-4.304
71000.000			34.427			-4.303
71101.000			34.427			-4.303
71202.000			34.426			-4.303
71300.000			34.425			-4.303
71400.000			34.424			-4.303
71501.000			34.423			-4.303
71600.000			34.422			-4.303
71700.000			34.421			-4.303
71801.000			34.421			-4.303
71901.000			34.419			-4.302
72001.000			34.419			-4.302
72101.000			34.418			-4.302
72200.000			34.418			-4.302
72300.000			34.417			-4.302
72401.000			34.416			-4.302
72500.000			34.415			-4.302
72600.000			34.415			-4.302
72702.000			34.414			-4.302
72801.000			34.413			-4.302
72900.000			34.412			-4.301
73001.000			34.411			-4.301
73100.000			34.411			-4.301
73200.000			34.410			-4.301
73301.000			34.409			-4.301
73400.000			34.409			-4.301
73501.000			34.408			-4.301
73602.000			34.408			-4.301
73700.000			34.406			-4.301
73800.000			34.406			-4.301
73901.000			34.406			-4.301
74000.000			34.403			-4.300
74101.000			34.403			-4.300
74200.000			34.403			-4.300
74301.000			34.401			-4.300
74402.000			34.401			-4.300
74500.000			34.400			-4.300
74600.000			34.399			-4.300
74701.000			34.398			-4.300
74800.000			34.397			-4.300
74900.000			34.397			-4.300
75001.000			34.396			-4.299
75101.000			34.396			-4.300
75201.000			34.396			-4.299
75301.000			34.395			-4.299
75400.000			34.392			-4.299
75500.000			34.392			-4.299
75601.000			34.392			-4.299
75700.000			34.392			-4.299
75800.000			34.391			-4.299
75902.000			34.390			-4.299
76001.000			34.389			-4.299
76101.000			34.388			-4.298
76201.000			34.386			-4.298
76300.000			34.385			-4.298
76400.000			34.385			-4.298
76501.000			34.385			-4.298
76600.000			34.385			-4.298
76700.000			34.383			-4.298
76802.000			34.383			-4.298
76901.000			34.381			-4.298
77000.000			34.380			-4.298
77101.000			34.380			-4.297
77200.000			34.380			-4.297
77301.000			34.379			-4.297
77400.000			34.378			-4.297
77500.000			34.377			-4.297
77602.000			34.377			-4.297
77701.000			34.376			-4.297
77801.000			34.375			-4.297
77901.000			34.374			-4.297
78000.000			34.374			-4.297
78100.000			34.373			-4.297
78201.000			34.372			-4.297
78300.000			34.372			-4.296
78400.000			34.370			-4.296
78502.000			34.370			-4.296
78601.000			34.370			-4.296
78700.000			34.370			-4.296
78801.000			34.369			-4.296
78900.000			34.368			-4.296
79000.000			34.367			-4.296
79101.000			34.365			-4.296
79200.000			34.364			-4.296
79301.000			34.364			-4.295
79402.000			34.363			-4.295
79500.000			34.363			-4.295
79600.000			34.362			-4.295
79701.000			34.361			-4.295
79800.000			34.360			-4.295
79900.000			34.358			-4.295
80001.000			34.359			-4.295
80100.000			34.358			-4.295
80201.000			34.357			-4.295
80302.000			34.357			-4.295
80400.000			34.355			-4.294
80501.000			34.355			-4.294
80600.000			34.355			-4.294
80700.000			34.354			-4.294
80801.000			34.353			-4.294
80900.000			34.353			-4.294
81001.000			34.352			-4.294
81102.000			34.351			-4.294
81200.000			34.351			-4.294
81300.000			34.350			-4.294
81401.000			34.348			-4.294
81500.000			34.347			-4.293
81600.000			34.348			-4.294
81701.000			34.347			-4.293
81801.000			34.347			-4.293
81901.000			34.347			-4.293
82001.000			34.344			-4.293
82100.000			34.343			-4.293
82200.000			34.343			-4.293
82301.000			34.342			-4.293
82400.000			34.342			-4.293
82500.000			34.342			-4.293
82602.000			34.340			-4.293
82701.000			34.338			-4.292
82800.000			34.339			-4.292
82901.000			34.337			-4.292
83000.000			34.336			-4.292
83100.000			34.337			-4.292
83201.000			34.337			-4.292
83300.000			34.336			-4.292
83401.000			34.334			-4.292
83502.000			34.334			-4.292
83601.000			34.333			-4.292
83701.000			34.332			-4.292
83800.000			34.332			-4.291
83900.000			34.332			-4.291
84001.000			34.331			-4.291
84100.000			34.330			-4.291
84200.000			34.329			-4.291
84302.000			34.328			-4.291
84401.000			34.328			-4.291
84500.000			34.327			-4.291
84601.000			34.327			-4.291
84700.000			34.326			-4.291
84800.000			34.326			-4.291
84901.000			34.325			-4.291
85000.000			34.324			-4.291
85101.000			34.323			-4.290
85202.000			34.322			-4.290
85300.000			34.322			-4.290
85400.000			34.322			-4.290
85501.000			34.321			-4.290
85600.000			34.319			-4.290
85700.000			34.319			-4.290
85801.000			34.319			-4.290
85901.000			34.318			-4.290
86001.000			34.317			-4.290
86101.000			34.316			-4.290
86200.000			34.316			-4.290
86300.000			34.316			-4.289
86401.000			34.315			-4.289
86500.000			34.314			-4.289
86600.000			34.313			-4.289
86702.000			34.311			-4.289
86801.000			34.311			-4.289
86901.000			34.312			-4.289
87000.000			34.311			-4.289
87100.000			34.309			-4.289
87201.000			34.309			-4.289
87300.000			34.308			-4.289
87400.000			34.307			-4.288
87502.000			34.306			-4.288
87601.000			34.306			-4.288
87700.000			34.306			-4.288
87801.000			34.305			-4.288
87900.000			34.304			-4.288
88000.000			34.304			-4.288
88101.000			34.302			-4.288
88200.000			34.302			-4.288
88300.000			34.301			-4.288
88402.000			34.301			-4.288
88501.000			34.300			-4.287
88600.000			34.300			-4.287
88701.000			34.300			-4.287
88800.000			34.299			-4.287
88900.000			34.298			-4.287
89001.000			34.298			-4.287
89100.000			34.297			-4.287
89201.000			34.294			-4.287
89302.000			34.294			-4.287
89400.000			34.295			-4.287
89500.000			34.296			-4.287
89601.000			34.295			-4.287
89700.000			34.293			-4.287
89800.000			34.292			-4.287
89901.000			34.291			-4.286
90000.000			34.290			-4.286
90102.000			34.289			-4.286
90201.000			34.289			-4.286
90300.000			34.289			-4.286
90401.000			34.289			-4.286
90500.000			34.288			-4.286
90600.000			34.287			-4.286
90701.000			34.286			-4.286
90800.000			34.286			-4.286
90901.000			34.286			-4.286
91002.000			34.285			-4.286
91100.000			34.284			-4.286
91200.000			34.285			-4.286
91301.000			34.283			-4.285
91400.000			34.281			-4.285
91500.000			34.281			-4.285
91601.000			34.281			-4.285
91701.000			34.280			-4.285
91801.000			34.280			-4.285
91902.000			34.279			-4.285
92000.000			34.277			-4.285
92100.000			34.278			-4.285
92201.000			34.277			-4.285
92300.000			34.277			-4.285
92400.000			34.276			-4.284
92501.000			34.276			-4.284
92601.000			34.275			-4.284
92701.000			34.274			-4.284
92801.000			34.274			-4.284
92900.000			34.273			-4.284
93000.000			34.272			-4.284
93101.000			34.271			-4.284
93200.000			34.271			-4.284
93301.000			34.270			-4.284
93401.000			34.269			-4.284
93501.000			34.269			-4.284
93601.000			34.268			-4.284
93700.000			34.267			-4.283
93800.000			34.266			-4.283
93901.000			34.267			-4.283
94000.000			34.267			-4.283
94100.000			34.266			-4.283
94202.000			34.263			-4.283
94301.000			34.264			-4.283
94400.000			34.263			-4.283
94501.000			34.262			-4.283
94600.000			34.262			-4.283
94700.000			34.261			-4.283
94801.000			34.260			-4.283
94900.000			34.260			-4.283
95000.000			34.260			-4.282
95102.000			34.259			-4.282
95201.000			34.259			-4.282
95300.000			34.258			-4.282
95401.000			34.258			-4.282
95500.000			34.257			-4.282
95600.000			34.256			-4.282
95701.000			34.256			-4.282
95800.000			34.256			-4.282
95901.000			34.256			-4.282
96002.000			34.254			-4.282
96100.000			34.253			-4.282
96200.000			34.252			-4.282
96301.000			34.252			-4.282
96400.000			34.252			-4.281
96501.000			34.250			-4.281
96600.000			34.250			-4.281
96701.000			34.250			-4.281
96802.000			34.247			-4.281
96900.000			34.247			-4.281
97000.000			34.247			-4.281
97101.000			34.248			-4.281
97200.000			34.246			-4.281
97300.000			34.244			-4.281
97401.000			34.244			-4.281
97500.000			34.245			-4.281
97601.000			34.244			-4.280
97702.000			34.243			-4.280
97800.000			34.243			-4.280
97900.000			34.241			-4.280
98001.000			34.240			-4.280
98100.000			34.240			-4.280
98200.000			34.240			-4.280
98301.000			34.240			-4.280
98401.000			34.239			-4.280
98501.000			34.240			-4.280
98601.000			34.239			-4.280
98700.000			34.237			-4.280
98800.000			34.237			-4.280
98901.000			34.237			-4.280
99000.000			34.237			-4.280
99100.000			34.235			-4.279
99202.000			34.235			-4.279
99301.000			34.234			-4.279
99400.000			34.234			-4.279
99501.000			34.233			-4.279
99600.000			34.233			-4.279
99701.000			34.232			-4.279
99800.000			34.231			-4.279
99900.000			34.230			-4.279
100001.000			34.230			-4.279
100101.000			34.229			-4.279
100201.000			34.228			-4.279
100301.000			34.228			-4.278
100400.000			34.227			-4.278
100500.000			34.226			-4.278
100601.000			34.226			-4.278
100700.000			34.225			-4.278
100800.000			34.225			-4.278
100902.000			34.223			-4.278
101001.000			34.223			-4.278
101100.000			34.224			-4.278
101201.000			34.223			-4.278
101300.000			34.222			-4.278
101400.000			34.221			-4.278
101501.000			34.221			-4.278
101600.000			34.221			-4.278
101701.000			34.219			-4.277
101802.000			34.219			-4.277
101900.000			34.218			-4.277
102000.000			34.218			-4.277
102101.000			34.218			-4.277
102200.000			34.217			-4.277
102300.000			34.215			-4.277
102401.000			34.216			-4.277
102501.000			34.215			-4.277
102601.000			34.214			-4.277
102701.000			34.214			-4.277
102800.000			34.214			-4.277
102901.000			34.212			-4.277
103000.000			34.212			-4.276
103100.000			34.211			-4.276
103201.000			34.210			-4.276
103301.000			34.210			-4.276
103401.000			34.210			-4.276
103501.000			34.209			-4.276
103600.000			34.209			-4.276
103700.000			34.208			-4.276
103801.000			34.207			-4.276
103900.000			34.207			-4.276
104000.000			34.206			-4.276
104102.000			34.206			-4.276
104201.000			34.205			-4.276
104300.000			34.204			-4.275
104401.000			34.205			-4.276
104500.000			34.204			-4.275
104600.000			34.203			-4.275
104701.000			34.202			-4.275
104800.000			34.204			-4.275
104901.000			34.202			-4.275
105002.000			34.201			-4.275
105101.000			34.200			-4.275
105200.000			34.200			-4.275
105301.000			34.199			-4.275
105400.000			34.199			-4.275
105500.000			34.199			-4.275
105601.000			34.197			-4.275
105700.000			34.197			-4.275
105801.000			34.197			-4.275
105902.000			34.196			-4.274
106000.000			34.195			-4.274
106101.000			34.195			-4.274
106200.000			34.194			-4.274
106300.000			34.194			-4.274
106401.000			34.193			-4.274
106500.000			34.192			-4.274
106601.000			34.192			-4.274
106702.000			34.192			-4.274
106801.000			34.191			-4.274
106900.000			34.191			-4.274
107001.000			34.190			-4.274
107100.000			34.190			-4.274
107200.000			34.190			-4.274
107301.000			34.188			-4.274
107400.000			34.187			-4.273
107501.000			34.187			-4.273
107602.000			34.187			-4.273
107700.000			34.187			-4.273
107800.000			34.186			-4.273
107901.000			34.185			-4.273
108000.000			34.184			-4.273
108100.000			34.183			-4.273
108201.000			34.184			-4.273
108300.000			34.184			-4.273
108401.000			34.183			-4.273
108502.000			34.183			-4.273
108600.000			34.182			-4.273
108700.000			34.180			-4.273
108801.000			34.179			-4.272
108900.000			34.179			-4.272
109000.000			34.179			-4.272
109101.000			34.178			-4.272
109201.000			34.178			-4.272
109302.000			34.177			-4.272
109401.000			34.176			-4.272
109500.000			34.176			-4.272
109601.000			34.176			-4.272
109700.000			34.175			-4.272
109800.000			34.174			-4.272
109901.000			34.174			-4.272
110000.000			34.173			-4.272
110101.000			34.173			-4.272
110202.000			34.173			-4.272
110300.000			34.171			-4.271
110400.000			34.171			-4.271
110501.000			34.172			-4.271
110600.000			34.171			-4.271
110700.000			34.169			-4.271
110801.000			34.169			-4.271
110901.000			34.169			-4.271
111001.000			34.168			-4.271
111101.000			34.168			-4.271
111200.000			34.168			-4.271
111300.000			34.167			-4.271
111401.000			34.167			-4.271
111500.000			34.166			-4.271
111600.000			34.165			-4.271
111702.000			34.165			-4.271
111801.000			34.164			-4.270
111901.000			34.163			-4.270
112001.000			34.163			-4.270
112100.000			34.162			-4.270
112200.000			34.161			-4.270
112301.000			34.162			-4.270
112400.000			34.161			-4.270
112501.000			34.161			-4.270
112601.000			34.160			-4.270
112701.000			34.160			-4.270
112801.000			34.159			-4.270
112900.000			34.158			-4.270
113000.000			34.158			-4.270
113101.000			34.158			-4.270
113200.000			34.157			-4.270
113300.000			34.156			-4.269
113402.000			34.155			-4.269
113501.000			34.155			-4.269
113601.000			34.155			-4.269
113701.000			34.154			-4.269
113800.000			34.153			-4.269
113900.000			34.153			-4.269
114001.000			34.153			-4.269
114100.000			34.153			-4.269
114200.000			34.152			-4.269
114302.000			34.151			-4.269
114401.000			34.151			-4.269
114500.000			34.150			-4.269
114601.000			34.149			-4.269
114700.000			34.149			-4.269
114800.000			34.149			-4.269
114901.000			34.148			-4.269
115000.000			34.147			-4.268
115101.000			34.147			-4.268
115202.000			34.147			-4.268
115300.000			34.146			-4.268
115400.000			34.146			-4.268
115501.000			34.146			-4.268
115600.000			34.144			-4.268
115701.000			34.144			-4.268
115800.000			34.145			-4.268
115901.000			34.144			-4.268
116002.000			34.142			-4.268
116100.000			34.144			-4.268
116200.000			34.142			-4.268
116301.000			34.141			-4.268
116400.000			34.140			-4.267
116500.000			34.140			-4.268
116601.000			34.140			-4.267
116701.000			34.139			-4.267
116801.000			34.138			-4.267
116902.000			34.137			-4.267
117000.000			34.137			-4.267
117100.000			34.137			-4.267
117201.000			34.136			-4.267
117300.000			34.136			-4.267
117400.000			34.136			-4.267
117501.000			34.135			-4.267
117601.000			34.135			-4.267
117701.000			34.133			-4.267
117801.000			34.133			-4.267
117900.000			34.135			-4.267
118000.000			34.135			-4.267
118101.000			34.133			-4.267
118200.000			34.132			-4.266
118300.000			34.132			-4.266
118401.000			34.132			-4.266
118501.000			34.130			-4.266
118601.000			34.130			-4.266
118701.000			34.129			-4.266
118800.000			34.130			-4.266
118901.000			34.130			-4.266
119000.000			34.127			-4.266
119100.000			34.127			-4.266
119201.000			34.127			-4.266
119301.000			34.127			-4.266
119401.000			34.126			-4.266
119501.000			34.125			-4.266
119600.000			34.125			-4.266
119700.000			34.124			-4.266
119801.000			34.124			-4.265
119900.000			34.124			-4.266
120000.000			34.123			-4.265
120102.000			34.123			-4.265
120201.000			34.122			-4.265
120301.000			34.121			-4.265
120401.000			34.120			-4.265
120500.000			34.120			-4.265
120600.000			34.119			-4.265
120701.000			34.120			-4.265
120800.000			34.121			-4.265
120900.000			34.119			-4.265
121002.000			34.118			-4.265
121101.000			34.117			-4.265
121200.000			34.117			-4.265
121301.000			34.116			-4.265
121400.000			34.117			-4.265
121500.000			34.116			-4.265
121601.000			34.116			-4.264
121700.000			34.115			-4.264
121801.000			34.115			-4.264
121902.000			34.114			-4.264
122000.000			34.114			-4.264
122101.000			34.114			-4.264
122200.000			34.114			-4.264
122300.000			34.112			-4.264
122401.000			34.111			-4.264
122500.000			34.112			-4.264
122601.000			34.110			-4.264
122702.000			34.109			-4.264
122800.000			34.109			-4.264
122900.000			34.109			-4.264
123001.000			34.108			-4.264
123100.000			34.108			-4.264
123200.000			34.108			-4.264
123301.000			34.107			-4.263
123401.000			34.106			-4.263
123501.000			34.105			-4.263
123601.000			34.105			-4.263
123700.000			34.105			-4.263
123800.000			34.104			-4.263
123901.000			34.104			-4.263
124000.000			34.104			-4.263
124100.000			34.103			-4.263
124202.000			34.102			-4.263
124301.000			34.102			-4.263
124400.000			34.102			-4.263
124501.000			34.101			-4.263
124600.000			34.101			-4.263
124700.000			34.102			-4.263
124801.000			34.101			-4.263
124900.000			34.100			-4.262
125001.000			34.098			-4.262
125102.000			34.098			-4.262
125200.000			34.098			-4.262
125301.000			34.098			-4.262
125400.000			34.097			-4.262
125500.000			34.096			-4.262
125601.000			34.096			-4.262
125700.000			34.095			-4.262
125800.000			34.095			-4.262
125902.000			34.094			-4.262
126001.000			34.094			-4.262
126100.000			34.095			-4.262
126201.000			34.094			-4.262
126300.000			34.093			-4.262
126400.000			34.093			-4.262
126501.000			34.092			-4.262
126600.000			34.092			-4.261
126701.000			34.091			-4.261
126802.000			34.091			-4.261
126901.000			34.090			-4.261
127000.000			34.089			-4.261
127101.000			34.089			-4.261
127200.000			34.089			-4.261
127300.000			34.087			-4.261
127401.000			34.088			-4.261
127500.000			34.089			-4.261
127601.000			34.087			-4.261
127702.000			34.086			-4.261
127800.000			34.086			-4.261
127900.000			34.086			-4.261
128001.000			34.085			-4.261
128100.000			34.084			-4.261
128200.000			34.084			-4.260
128301.000			34.084			-4.260
128401.000			34.084			-4.260
128502.000			34.083			-4.260
128601.000			34.083			-4.260
128700.000			34.083			-4.260
128801.000			34.083			-4.260
128900.000			34.081			-4.260
129000.000			34.081			-4.260
129101.000			34.079			-4.260
129200.000			34.079			-4.260
129301.000			34.079			-4.260
129402.000			34.078			-4.260
129500.000			34.078			-4.260
129600.000			34.079			-4.260
129701.000			34.078			-4.260
129800.000			34.076			-4.260
129900.000			34.076			-4.259
130001.000			34.076			-4.259
130100.000			34.075			-4.259
130201.000			34.074			-4.259
130302.000			34.074			-4.259
130400.000			34.074			-4.259
130500.000			34.075			-4.259
130601.000			34.073			-4.259
130700.000			34.073			-4.259
130800.000			34.072			-4.259
130901.000			34.073			-4.259
131001.000			34.072			-4.259
131101.000			34.072			-4.259
131201.000			34.071			-4.259
131300.000			34.069			-4.259
131400.000			34.070			-4.259
131501.000			34.070			-4.259
131600.000			34.070			-4.259
131701.000			34.070			-4.259
131800.000			34.068			-4.259
131901.000			34.069			-4.259
132002.000			34.068			-4.258
132101.000			34.066			-4.258
132200.000			34.065			-4.258
132301.000			34.066			-4.258
132400.000			34.065			-4.258
132500.000			34.065			-4.258
132601.000			34.065			-4.258
132700.000			34.063			-4.258
132801.000			34.062			-4.258
132902.000			34.063			-4.258
133001.000			34.063			-4.258
133100.000			34.062			-4.258
133201.000			34.061			-4.258
133300.000			34.060			-4.258
133400.000			34.061			-4.258
133501.000			34.060			-4.258
133600.000			34.060			-4.258
133701.000			34.060			-4.257
133802.000			34.059			-4.257
133901.000			34.060			-4.257
134000.000			34.059			-4.257
134101.000			34.057			-4.257
134200.000			34.057			-4.257
134300.000			34.056			-4.257
134401.000			34.056			-4.257
134500.000			34.056			-4.257
134600.000			34.056			-4.257
134702.000			34.056			-4.257
134801.000			34.056			-4.257
134901.000			34.054			-4.257
135000.000			34.053			-4.257
135100.000			34.053			-4.257
135201.000			34.052			-4.257
135300.000			34.052			-4.257
135400.000			34.051			-4.256
135501.000			34.052			-4.256
135601.000			34.050			-4.256
135701.000			34.050			-4.256
135801.000			34.050			-4.256
135900.000			34.050			-4.256
136000.000			34.051			-4.256
136101.000			34.052			-4.256
136200.000			34.050			-4.256
136300.000			34.049			-4.256
136401.000			34.047			-4.256
136501.000			34.046			-4.256
136601.000			34.046			-4.256
136701.000			34.047			-4.256
136800.000			34.046			-4.256
136900.000			34.045			-4.256
137001.000			34.044			-4.256
137100.000			34.044			-4.256
137200.000			34.044			-4.256
137301.000			34.044			-4.256
137401.000			34.044			-4.256
137501.000			34.043			-4.255
137601.000			34.043			-4.255
137700.000			34.043			-4.255
137800.000			34.041			-4.255
137901.000			34.041			-4.255
138000.000			34.040			-4.255
138101.000			34.040			-4.255
138200.000			34.040			-4.255
138301.000			34.039			-4.255
138402.000			34.039			-4.255
138501.000			34.039			-4.255
138600.000			34.038			-4.255
138701.000			34.038			-4.255
138800.000			34.038			-4.255
138900.000			34.038			-4.255
139001.000			34.037			-4.255
139100.000			34.036			-4.254
139200.000			34.036			-4.254
139302.000			34.036			-4.254
139401.000			34.034			-4.254
139500.000			34.035			-4.254
139601.000			34.035			-4.254
139700.000			34.034			-4.254
139800.000			34.032			-4.254
139901.000			34.031			-4.254
140000.000			34.032			-4.254
140100.000			34.031			-4.254
140202.000			34.032			-4.254
140301.000			34.032			-4.254
140400.000			34.031			-4.254
140501.000			34.031			-4.254
140600.000			34.030			-4.254
140700.000			34.028			-4.254
140801.000			34.028			-4.254
140900.000			34.028			-4.253
141000.000			34.027			-4.253
141102.000			34.028			-4.253
141201.000			34.028			-4.253
141301.000			34.026			-4.253
141400.000			34.026			-4.253
141500.000			34.026			-4.253
141601.000			34.025			-4.253
141700.000			34.025			-4.253
141800.000			34.025			-4.253
141901.000			34.023			-4.253
142001.000			34.023			-4.253
142101.000			34.023			-4.253
142201.000			34.023			-4.253
142300.000			34.022			-4.253
142400.000			34.022			-4.253
142501.000			34.022			-4.253
142600.000			34.021			-4.253
142700.000			34.020			-4.253
142801.000			34.020			-4.252
142901.000			34.019			-4.252
143001.000			34.019			-4.252
143101.000			34.019			-4.252
143200.000			34.018			-4.252
143300.000			34.017			-4.252
143401.000			34.018			-4.252
143500.000			34.018			-4.252
143600.000			34.016			-4.252
143701.000			34.016			-4.252
143801.000			34.016			-4.252
143901.000			34.016			-4.252
144001.000			34.015			-4.252
144100.000			34.017			-4.252
144200.000			34.015			-4.252
144301.000			34.014			-4.252
144400.000			34.014			-4.252
144501.000			34.013			-4.252
144600.000			34.013			-4.252
144701.000			34.012			-4.252
144802.000			34.012			-4.252
144900.000			34.012			-4.251
145000.000			34.011			-4.251
145101.000			34.011			-4.251
145200.000			34.010			-4.251
145300.000			34.010			-4.251
145401.000			34.009			-4.251
145501.000			34.008			-4.251
145601.000			34.008			-4.251
145702.000			34.008			-4.251
145800.000			34.008			-4.251
145900.000			34.008			-4.251
146001.000			34.007			-4.251
146100.000			34.007			-4.251
146200.000			34.006			-4.251
146301.000			34.006			-4.251
146401.000			34.006			-4.251
146501.000			34.004			-4.251
146602.000			34.005			-4.251
146700.000			34.005			-4.251
146800.000			34.004			-4.251
146901.000			34.004			-4.250
147000.000			34.004			-4.250
147100.000			34.003			-4.250
147201.000			34.003			-4.250
147301.000			34.002			-4.250
147401.000			34.002			-4.250
147502.000			34.002			-4.250
147600.000			34.002			-4.250
147701.000			34.001			-4.250
147800.000			34.000			-4.250
147900.000			33.999			-4.250
148001.000			33.999			-4.250
148100.000			33.999			-4.250
148200.000			33.999			-4.250
148302.000			33.999			-4.250
148401.000			33.999			-4.250
148501.000			33.999			-4.250
148601.000			33.998			-4.250
148700.000			33.997			-4.250
148800.000			33.997			-4.250
148901.000			33.997			-4.250
149000.000			33.996			-4.249
149100.000			33.995			-4.249
149201.000			33.995			-4.249
149301.000			33.995			-4.249
149401.000			33.994			-4.249
149502.000			33.994			-4.249
149600.000			33.993			-4.249
149700.000			33.993			-4.249
149801.000			33.992			-4.249
149900.000			33.992			-4.249
150000.000			33.993			-4.249
150101.000			33.993			-4.249
150200.000			33.991			-4.249
150301.000			33.991			-4.249
150402.000			33.990			-4.249
150501.000			33.990			-4.249
150600.000			33.989			-4.249
150701.000			33.989			-4.249
150800.000			33.989			-4.249
150901.000			33.988			-4.249
151000.000			33.988			-4.248
151100.000			33.988			-4.248
151201.000			33.988			-4.248
151301.000			33.987			-4.248
151401.000			33.987			-4.248
151502.000			33.986			-4.248
151600.000			33.986			-4.248
151700.000			33.985			-4.248
151801.000			33.984			-4.248
151900.000			33.984			-4.248
152000.000			33.984			-4.248
152101.000			33.982			-4.248
152200.000			33.982			-4.248
152301.000			33.982			-4.248
152402.000			33.983			-4.248
152500.000			33.983			-4.248
152600.000			33.981			-4.248
152701.000			33.981			-4.248
152800.000			33.981			-4.248
152900.000			33.980			-4.248
153001.000			33.981			-4.248
153100.000			33.980			-4.247
153201.000			33.980			-4.247
153302.000			33.979			-4.247
153401.000			33.978			-4.247
153500.000			33.978			-4.247
153601.000			33.977			-4.247
153700.000			33.977			-4.247
153800.000			33.977			-4.247
153901.000			33.976			-4.247
154000.000			33.975			-4.247
154101.000			33.975			-4.247
154201.000			33.976			-4.247
154301.000			33.976			-4.247
154402.000			33.975			-4.247
154500.000			33.975			-4.247
154600.000			33.974			-4.247
154701.000			33.973			-4.247
154800.000			33.973			-4.247
154900.000			33.973			-4.247
155001.000			33.973			-4.247
155100.000			33.972			-4.247
155201.000			33.971			-4.246
155302.000			33.970			-4.246
155401.000			33.970			-4.246
155500.000			33.971			-4.246
155601.000			33.970			-4.246
155700.000			33.969			-4.246
155800.000			33.969			-4.246
155901.000			33.968			-4.246
156000.000			33.968			-4.246
156100.000			33.968			-4.246
156202.000			33.968			-4.246
156301.000			33.968			-4.246
156401.000			33.968			-4.246
156501.000			33.967			-4.246
156600.000			33.966			-4.246
156700.000			33.965			-4.246
156801.000			33.965			-4.246
156900.000			33.965			-4.246
157000.000			33.964			-4.246
157101.000			33.964			-4.245
157201.000			33.964			-4.245
157302.000			33.963			-4.245
157401.000			33.962			-4.245
157500.000			33.962			-4.245
157601.000			33.962			-4.245
157700.000			33.962			-4.245
157800.000			33.962			-4.245
157901.000			33.961			-4.245
158000.000			33.960			-4.245
158100.000			33.960			-4.245
158202.000			33.959			-4.245
158301.000			33.959			-4.245
158400.000			33.958			-4.245
158501.000			33.958			-4.245
158600.000			33.959			-4.245
158700.000			33.958			-4.245
158801.000			33.957			-4.245
158900.000			33.955			-4.244
159000.000			33.956			-4.244
159101.000			33.956			-4.245
159201.000			33.956			-4.245
159301.000			33.956			-4.245
159401.000			33.956			-4.244
159500.000			33.955			-4.244
159600.000			33.954			-4.244
159701.000			33.954			-4.244
159800.000			33.953			-4.244
159900.000			33.953			-4.244
160001.000			33.953			-4.244
160100.000			33.953			-4.244
160201.000			33.952			-4.244
160302.000			33.952			-4.244
160400.000			33.952			-4.244
160501.000			33.951			-4.244
160600.000			33.951			-4.244
160700.000			33.949			-4.244
160801.000			33.948			-4.244
160900.000			33.949			-4.244
161000.000			33.950			-4.244
161102.000			33.949			-4.244
161201.000			33.947			-4.243
161301.000			33.946			-4.243
161401.000			33.946			-4.243
161500.000			33.946			-4.243
161600.000			33.947			-4.243
161701.000			33.947			-4.243
161800.000			33.946			-4.243
161900.000			33.946			-4.243
162001.000			33.945			-4.243
162101.000			33.945			-4.243
162201.000			33.946			-4.243
162301.000			33.945			-4.243
162400.000			33.945			-4.243
162500.000			33.943			-4.243
162601.000			33.943			-4.243
162700.000			33.943			-4.243
162800.000			33.942			-4.243
162901.000			33.942			-4.243
163001.000			33.943			-4.243
163101.000			33.942			-4.243
163202.000			33.941			-4.243
163300.000			33.940			-4.243
163400.000			33.940			-4.243
163501.000			33.940			-4.242
163600.000			33.940			-4.242
163701.000			33.939			-4.242
163800.000			33.939			-4.242
163900.000			33.939			-4.242
164002.000			33.939			-4.242
164101.000			33.938			-4.242
164200.000			33.937			-4.242
164301.000			33.937			-4.242
164400.000			33.937			-4.242
164500.000			33.936			-4.242
164601.000			33.936			-4.242
164700.000			33.937			-4.242
164800.000			33.935			-4.242
164902.000			33.934			-4.242
165001.000			33.934			-4.242
165101.000			33.934			-4.242
165201.000			33.934			-4.242
165300.000			33.935			-4.242
165400.000			33.933			-4.242
165501.000			33.933			-4.242
165600.000			33.932			-4.242
165700.000			33.932			-4.242
165801.000			33.932			-4.241
165901.000			33.932			-4.241
166001.000			33.931			-4.241
166102.000			33.932			-4.241
166200.000			33.931			-4.241
166300.000			33.930			-4.241
166401.000			33.929			-4.241
166500.000			33.929			-4.241
166600.000			33.929			-4.241
166701.000			33.929			-4.241
166800.000			33.928			-4.241
166902.000			33.927			-4.241
167001.000			33.927			-4.241
167101.000			33.927			-4.241
167201.000			33.926			-4.241
167300.000			33.927			-4.241
167400.000			33.926			-4.241
167501.000			33.926			-4.241
167600.000			33.925			-4.241
167700.000			33.925			-4.241
167801.000			33.925			-4.241
167901.000			33.924			-4.240
168001.000			33.923			-4.240
168101.000			33.924			-4.240
168200.000			33.922			-4.240
168300.000			33.923			-4.240
168401.000			33.923			-4.240
168500.000			33.922			-4.240
168600.000			33.922			-4.240
168701.000			33.922			-4.240
168800.000			33.921			-4.240
168901.000			33.920			-4.240
169002.000			33.920			-4.240
169100.000			33.920			-4.240
169200.000			33.920			-4.240
169301.000			33.921			-4.240
169400.000			33.921			-4.240
169500.000			33.920			-4.240
169601.000			33.919			-4.240
169700.000			33.917			-4.240
169801.000			33.917			-4.240
169902.000			33.916			-4.240
170001.000			33.916			-4.240
170101.000			33.917			-4.240
170200.000			33.917			-4.240
170300.000			33.916			-4.239
170401.000			33.915			-4.239
170500.000			33.915			-4.239
170600.000			33.915			-4.239
170701.000			33.915			-4.239
170801.000			33.914			-4.239
170901.000			33.913			-4.239
171001.000			33.913			-4.239
171100.000			33.914			-4.239
171200.000			33.911			-4.239
171301.000			33.911			-4.239
171400.000			33.911			-4.239
171500.000			33.911			-4.239
171601.000			33.910			-4.239
171701.000			33.910			-4.239
171801.000			33.910			-4.239
171901.000			33.911			-4.239
172000.000			33.911			-4.239
172100.000			33.909			-4.239
172201.000			33.908			-4.239
172300.000			33.908			-4.239
172400.000			33.909			-4.239
172501.000			33.909			-4.239
172601.000			33.906			-4.238
172701.000			33.906			-4.238
172802.000			33.907			-4.238
172900.000			33.907			-4.238
173000.000			33.906			-4.238
173101.000			33.907			-4.238
173200.000			33.907			-4.238
173301.000			33.907			-4.238
173400.000			33.905			-4.238
173500.000			33.904			-4.238
173602.000			33.902			-4.238
173701.000			33.902			-4.238
173800.000			33.902			-4.238
173901.000			33.903			-4.238
174000.000			33.903			-4.238
174100.000			33.902			-4.238
174201.000			33.902			-4.238
174300.000			33.902			-4.238
174400.000			33.902			-4.238
174502.000			33.901			-4.238
174601.000			33.901			-4.238
174701.000			33.901			-4.238
174801.000			33.900			-4.237
174900.000			33.899			-4.237
175000.000			33.899			-4.237
175101.000			33.898			-4.237
175200.000			33.898			-4.237
175300.000			33.898			-4.237
175401.000			33.898			-4.237
175501.000			33.897			-4.237
175601.000			33.897			-4.237
175702.000			33.897			-4.237
175800.000			33.897			-4.237
175900.000			33.896			-4.237
176001.000			33.896			-4.237
176100.000			33.895			-4.237
176200.000			33.896			-4.237
176301.000			33.894			-4.237
176400.000			33.895			-4.237
176502.000			33.895			-4.237
176601.000			33.895			-4.237
176701.000			33.894			-4.237
176801.000			33.894			-4.237
176900.000			33.894			-4.237
177000.000			33.892			-4.237
177101.000			33.892			-4.236
177200.000			33.892			-4.236
177300.000			33.892			-4.237
177401.000			33.892			-4.236
177501.000			33.891			-4.236
177601.000			33.890			-4.236
177702.000			33.891			-4.236
177800.000			33.890			-4.236
177900.000			33.889			-4.236
178001.000			33.888			-4.236
178100.000			33.888			-4.236
178200.000			33.888			-4.236
178301.000			33.889			-4.236
178400.000			33.889			-4.236
178500.000			33.888			-4.236
178602.000			33.886			-4.236
178701.000			33.887			-4.236
178800.000			33.887			-4.236
178901.000			33.887			-4.236
179000.000			33.887			-4.236
179100.000			33.886			-4.236
179201.000			33.886			-4.236
179300.000			33.885			-4.236
179400.000			33.884			-4.236
179501.000			33.885			-4.236
179601.000			33.886			-4.236
179702.000			33.885			-4.236
179801.000			33.884			-4.236
179900.000			33.883			-4.235
180001.000			33.883			-4.235
180100.000			33.882			-4.235
180200.000			33.882			-4.235
180301.000			33.882			-4.235
180400.000			33.881			-4.235
180500.000			33.880			-4.235
180602.000			33.881			-4.235
180701.000			33.881			-4.235
180800.000			33.880			-4.235
180901.000			33.879			-4.235
181000.000			33.879			-4.235
181100.000			33.879			-4.235
181201.000			33.879			-4.235
181300.000			33.879			-4.235
181400.000			33.878			-4.235
181501.000			33.878			-4.235
181601.000			33.878			-4.235
181701.000			33.877			-4.235
181801.000			33.876			-4.235
181900.000			33.876			-4.234
182000.000			33.875			-4.234
182101.000			33.875			-4.234
182200.000			33.874			-4.234
182300.000			33.874			-4.234
182401.000			33.874			-4.234
182501.000			33.874			-4.234
182601.000			33.873			-4.234
182702.000			33.874			-4.234
182800.000			33.873			-4.234
182901.000			33.872			-4.234
183000.000			33.872			-4.234
183100.000			33.872			-4.234
183201.000			33.871			-4.234
183300.000			33.871			-4.234
183400.000			33.872			-4.234
183502.000			33.871			-4.234
183601.000			33.871			-4.234
183700.000			33.870			-4.234
183801.000			33.869			-4.234
183900.000			33.869			-4.234
184000.000			33.870			-4.234
184101.000			33.870			-4.234
184200.000			33.869			-4.234
184300.000			33.869			-4.234
184401.000			33.868			-4.233
184501.000			33.867			-4.233
184601.000			33.867			-4.233
184701.000			33.867			-4.233
184800.000			33.867			-4.233
184900.000			33.867			-4.233
185001.000			33.866			-4.233
185100.000			33.865			-4.233
185200.000			33.866			-4.233
185301.000			33.865			-4.233
185401.000			33.865			-4.233
185501.000			33.865			-4.233
185602.000			33.865			-4.233
185700.000			33.864			-4.233
185800.000			33.864			-4.233
185901.000			33.863			-4.233
186000.000			33.862			-4.233
186101.000			33.861			-4.233
186200.000			33.862			-4.233
186300.000			33.862			-4.233
186402.000			33.861			-4.233
186501.000			33.861			-4.233
186601.000			33.862			-4.233
186701.000			33.861			-4.233
186800.000			33.860			-4.233
186900.000			33.861			-4.233
187001.000			33.860			-4.233
187100.000			33.861			-4.233
187200.000			33.860			-4.232
187301.000			33.858			-4.232
187401.000			33.857			-4.232
187501.000			33.858			-4.232
187602.000			33.857			-4.232
187700.000			33.857			-4.232
187800.000			33.857			-4.232
187901.000			33.858			-4.232
188000.000			33.857			-4.232
188100.000			33.856			-4.232
188201.000			33.855			-4.232
188300.000			33.855			-4.232
188401.000			33.857			-4.232
188502.000			33.856			-4.232
188601.000			33.853			-4.232
188700.000			33.855			-4.232
188801.000			33.853			-4.232
188900.000			33.854			-4.232
189000.000			33.854			-4.232
189101.000			33.853			-4.232
189200.000			33.853			-4.232
189301.000			33.853			-4.232
189401.000			33.850			-4.231
189501.000			33.851			-4.231
189602.000			33.852			-4.231
189700.000			33.852			-4.231
189800.000			33.850			-4.231
189901.000			33.850			-4.231
190000.000			33.851			-4.231
190100.000			33.849			-4.231
190201.000			33.850			-4.231
190300.000			33.850			-4.231
190401.000			33.850			-4.231
190502.000			33.850			-4.231
190601.000			33.849			-4.231
190700.000			33.849			-4.231
190801.000			33.847			-4.231
190900.000			33.848			-4.231
191000.000			33.847			-4.231
191101.000			33.847			-4.231
191200.000			33.846			-4.231
191300.000			33.846			-4.231
191402.000			33.845			-4.231
191501.000			33.844			-4.230
191600.000			33.844			-4.231
191701.000			33.844			-4.231
191800.000			33.846			-4.231
191900.000			33.846			-4.231
192001.000			33.844			-4.231
192100.000			33.843			-4.230
192200.000			33.844			-4.230
192301.000			33.844			-4.230
192401.000			33.842			-4.230
192502.000			33.842			-4.230
192600.000			33.842			-4.230
192700.000			33.841			-4.230
192801.000			33.841			-4.230
192900.000			33.842			-4.230
193000.000			33.840			-4.230
193101.000			33.840			-4.230
193200.000			33.840			-4.230
193301.000			33.840			-4.230
193402.000			33.841			-4.230
193501.000			33.840			-4.230
193600.000			33.838			-4.230
193701.000			33.838			-4.230
193800.000			33.838			-4.230
193900.000			33.839			-4.230
194001.000			33.839			-4.230
194100.000			33.838			-4.230
194200.000			33.837			-4.230
194302.000			33.838			-4.230
194401.000			33.836			-4.229
194500.000			33.835			-4.229
194601.000			33.835			-4.229
194700.000			33.835			-4.229
194800.000			33.834			-4.229
194901.000			33.834			-4.229
195000.000			33.834			-4.229
195100.000			33.834			-4.229
195201.000			33.834			-4.229
195301.000			33.833			-4.229
195401.000			33.833			-4.229
195501.000			33.832			-4.229
195600.000			33.833			-4.229
195701.000			33.833			-4.229
195800.000			33.832			-4.229
195900.000			33.832			-4.229
196001.000			33.831			-4.229
196100.000			33.831			-4.229
196201.000			33.831			-4.229
196302.000			33.831			-4.229
196401.000			33.831			-4.229
196500.000			33.831			-4.229
196601.000			33.829			-4.229
196700.000			33.830			-4.229
196800.000			33.830			-4.229
196901.000			33.828			-4.229
197000.000			33.828			-4.229
197100.000			33.829			-4.229
197202.000			33.829			-4.229
197301.000			33.828			-4.228
197401.000			33.828			-4.229
197501.000			33.827			-4.228
197600.000			33.826			-4.228
197700.000			33.826			-4.228
197801.000			33.827			-4.228
197900.000			33.826			-4.228
198000.000			33.824			-4.228
198101.000			33.825			-4.228
198201.000			33.824			-4.228
198301.000			33.824			-4.228
198402.000			33.824			-4.228
198500.000			33.825			-4.228
198600.000			33.825			-4.228
198701.000			33.825			-4.228
198800.000			33.822			-4.228
198901.000			33.823			-4.228
199000.000			33.822			-4.228
199100.000			33.821			-4.228
199202.000			33.821			-4.228
199301.000			33.821			-4.228
199401.000			33.821			-4.228
199501.000			33.820			-4.228
199600.000			33.821			-4.228
199700.000			33.821			-4.228
199801.000			33.820			-4.228
199900.000			33.820			-4.228
200000.000			33.820			-4.227
200101.000			33.820			-4.227
200201.000			33.818			-4.227
200301.000			33.817			-4.227
200401.000			33.819			-4.227
200500.000			33.819			-4.227
200600.000			33.817			-4.227
200701.000			33.816			-4.227
200800.000			33.817			-4.227
200900.000			33.816			-4.227
201001.000			33.816			-4.227
201101.000			33.815			-4.227
201201.000			33.816			-4.227
201301.000			33.816			-4.227
201400.000			33.816			-4.227
201500.000			33.815			-4.227
201601.000			33.815			-4.227
201700.000			33.814			-4.227
201800.000			33.814			-4.227
201901.000			33.814			-4.227
202001.000			33.813			-4.227
202102.000			33.812			-4.227
202200.000			33.812			-4.227
202300.000			33.812			-4.227
202401.000			33.811			-4.226
202500.000			33.811			-4.226
202600.000			33.810			-4.226
202701.000			33.811			-4.226
202800.000			33.812			-4.226
202901.000			33.811			-4.226
203002.000			33.810			-4.226
203100.000			33.810			-4.226
203200.000			33.809			-4.226
203301.000			33.809			-4.226
203400.000			33.809			-4.226
203500.000			33.809			-4.226
203601.000			33.809			-4.226
203700.000			33.809			-4.226
203801.000			33.807			-4.226
203902.000			33.807			-4.226
204001.000			33.807			-4.226
204100.000			33.807			-4.226
204201.000			33.807			-4.226
204300.000			33.806			-4.226
204400.000			33.806			-4.226
204501.000			33.806			-4.226
204600.000			33.805			-4.226
204700.000			33.804			-4.226
204802.000			33.805			-4.226
204901.000			33.804			-4.225
205000.000			33.803			-4.225
205101.000			33.804			-4.226
205200.000			33.805			-4.226
205301.000			33.803			-4.225
205400.000			33.803			-4.225
205500.000			33.803			-4.225
205601.000			33.803			-4.225
205701.000			33.802			-4.225
205801.000			33.801			-4.225
205901.000			33.802			-4.225
206000.000			33.800			-4.225
206100.000			33.800			-4.225
206201.000			33.800			-4.225
206300.000			33.800			-4.225
206400.000			33.800			-4.225
206501.000			33.800			-4.225
206601.000			33.800			-4.225
206701.000			33.800			-4.225
206801.000			33.799			-4.225
206900.000			33.798			-4.225
207000.000			33.797			-4.225
207101.000			33.798			-4.225
207200.000			33.798			-4.225
207300.000			33.797			-4.225
207401.000			33.797			-4.225
207501.000			33.797			-4.225
207601.000			33.796			-4.224
207702.000			33.796			-4.224
207800.000			33.795			-4.224
207900.000			33.794			-4.224
208001.000			33.795			-4.224
208100.000			33.795			-4.224
208200.000			33.795			-4.224
208301.000			33.795			-4.224
208400.000			33.795			-4.224
208502.000			33.794			-4.224
208601.000			33.793			-4.224
208701.000			33.793			-4.224
208801.000			33.793			-4.224
208900.000			33.792			-4.224
209000.000			33.791			-4.224
209101.000			33.792			-4.224
209200.000			33.792			-4.224
209300.000			33.791			-4.224
209401.000			33.791			-4.224
209501.000			33.791			-4.224
209601.000			33.791			-4.224
209701.000			33.791			-4.224
209800.000			33.790			-4.224
209900.000			33.790			-4.224
210001.000			33.789			-4.224
210100.000			33.789			-4.224
210200.000			33.790			-4.224
210301.000			33.789			-4.224
210401.000			33.789			-4.224
210501.000			33.789			-4.224
210601.000			33.787			-4.223
210700.000			33.787			-4.223
210800.000			33.787			-4.223
210901.000			33.788			-4.223
211000.000			33.787			-4.223
211100.000			33.786			-4.223
211201.000			33.786			-4.223
211300.000			33.786			-4.223
211401.000			33.785			-4.223
211502.000			33.784			-4.223
211600.000			33.784			-4.223
211701.000			33.785			-4.223
211800.000			33.784			-4.223
211900.000			33.784			-4.223
212001.000			33.784			-4.223
212100.000			33.784			-4.223
212200.000			33.783			-4.223
212302.000			33.783			-4.223
212401.000			33.783			-4.223
212501.000			33.780			-4.223
212601.000			33.781			-4.223
212700.000			33.782			-4.223
212800.000			33.782			-4.223
212901.000			33.782			-4.223
213000.000			33.781			-4.223
213100.000			33.782			-4.223
213202.000			33.781			-4.223
213301.000			33.781			-4.223
213401.000			33.779			-4.222
213501.000			33.779			-4.222
213600.000			33.780			-4.222
213700.000			33.779			-4.222
213801.000			33.779			-4.222
213900.000			33.779			-4.222
214000.000			33.777			-4.222
214101.000			33.778			-4.222
214201.000			33.777			-4.222
214301.000			33.777			-4.222
214401.000			33.776			-4.222
214500.000			33.776			-4.222
214600.000			33.777			-4.222
214701.000			33.776			-4.222
214800.000			33.777			-4.222
214901.000			33.776			-4.222
215000.000			33.776			-4.222
215100.000			33.775			-4.222
215202.000			33.775			-4.222
215301.000			33.774			-4.222
215400.000			33.774			-4.222
215501.000			33.774			-4.222
215600.000			33.773			-4.222
215700.000			33.772			-4.222
215801.000			33.773			-4.222
215900.000			33.773			-4.222
216000.000			33.772			-4.222
216102.000			33.771			-4.221
216201.000			33.772			-4.221
216301.000			33.770			-4.221
216401.000			33.770			-4.221
216500.000			33.771			-4.221
216600.000			33.770			-4.221
216701.000			33.770			-4.221
216800.000			33.770			-4.221
216900.000			33.769			-4.221
217001.000			33.770			-4.221
217101.000			33.770			-4.221
217201.000			33.769			-4.221
217301.000			33.769			-4.221
217400.000			33.769			-4.221
217500.000			33.769			-4.221
217601.000			33.768			-4.221
217700.000			33.768			-4.221
217800.000			33.768			-4.221
217901.000			33.767			-4.221
218001.000			33.767			-4.221
218102.000			33.767			-4.221
218201.000			33.765			-4.221
218300.000			33.767			-4.221
218401.000			33.766			-4.221
218500.000			33.765			-4.221
218600.000			33.765			-4.221
218701.000			33.765			-4.221
218800.000			33.765			-4.221
218900.000			33.764			-4.221
219002.000			33.765			-4.221
219101.000			33.763			-4.220
219201.000			33.762			-4.220
219301.000			33.762			-4.220
219400.000			33.762			-4.220
219500.000			33.762			-4.220
219601.000			33.762			-4.220
219700.000			33.763			-4.220
219800.000			33.761			-4.220
219901.000			33.762			-4.220
220001.000			33.761			-4.220
220101.000			33.761			-4.220
220201.000			33.761			-4.220
220300.000			33.761			-4.220
220400.000			33.761			-4.220
220501.000			33.761			-4.220
220600.000			33.760			-4.220
220700.000			33.758			-4.220
220801.000			33.759			-4.220
220901.000			33.760			-4.220
221001.000			33.758			-4.220
221101.000			33.758			-4.220
221200.000			33.758			-4.220
221301.000			33.758			-4.220
221400.000			33.758			-4.220
221500.000			33.758			-4.220
221601.000			33.758			-4.220
221700.000			33.757			-4.220
221800.000			33.757			-4.220
221902.000			33.756			-4.220
222001.000			33.756			-4.219
222100.000			33.755			-4.219
222201.000			33.755			-4.219
222300.000			33.756			-4.219
222400.000			33.755			-4.219
222501.000			33.755			-4.219
222600.000			33.755			-4.219
222700.000			33.754			-4.219
222802.000			33.754			-4.219
222901.000			33.753			-4.219
223000.000			33.753			-4.219
223101.000			33.753			-4.219
223200.000			33.752			-4.219
223300.000			33.753			-4.219
223401.000			33.752			-4.219
223500.000			33.752			-4.219
223600.000			33.752			-4.219
223702.000			33.751			-4.219
223801.000			33.751			-4.219
223901.000			33.752			-4.219
224001.000			33.751			-4.219
224100.000			33.750			-4.219
224200.000			33.750			-4.219
224301.000			33.751			-4.219
224400.000			33.749			-4.219
224501.000			33.749			-4.219
224600.000			33.749			-4.219
224701.000			33.748			-4.219
224802.000			33.749			-4.219
224900.000			33.747			-4.218
225000.000			33.747			-4.218
225101.000			33.747			-4.218
225200.000			33.746			-4.218
225300.000			33.746			-4.218
225401.000			33.746			-4.218
225500.000			33.747			-4.218
225601.000			33.746			-4.218
225702.000			33.746			-4.218
225801.000			33.745			-4.218
225900.000			33.745			-4.218
226001.000			33.745			-4.218
226100.000			33.746			-4.218
226200.000			33.745			-4.218
226301.000			33.745			-4.218
226400.000			33.744			-4.218
226500.000			33.743			-4.218
226602.000			33.744			-4.218
226701.000			33.744			-4.218
226800.000			33.742			-4.218
226901.000			33.742			-4.218
227000.000			33.742			-4.218
227100.000			33.742			-4.218
227201.000			33.743			-4.218
227300.000			33.742			-4.218
227400.000			33.742			-4.218
227502.000			33.742			-4.218
227601.000			33.742			-4.218
227701.000			33.742			-4.218
227800.000			33.740			-4.218
227900.000			33.740			-4.218
228001.000			33.741			-4.218
228100.000			33.740			-4.218
228200.000			33.740			-4.217
228301.000			33.740			-4.217
228401.000			33.740			-4.218
228501.000			33.738			-4.217
228602.000			33.738			-4.217
228700.000			33.739			-4.217
228800.000			33.739			-4.217
228901.000			33.738			-4.217
229000.000			33.737			-4.217
229100.000			33.737			-4.217
229201.000			33.736			-4.217
229300.000			33.736			-4.217
229401.000			33.735			-4.217
229502.000			33.735			-4.217
229601.000			33.735			-4.217
229700.000			33.735			-4.217
229801.000			33.736			-4.217
229900.000			33.735			-4.217
230000.000			33.734			-4.217
230101.000			33.733			-4.217
230200.000			33.734			-4.217
230300.000			33.734			-4.217
230402.000			33.733			-4.217
230501.000			33.734			-4.217
230600.000			33.733			-4.217
230701.000			33.733			-4.217
230800.000			33.733			-4.217
230901.000			33.733			-4.217
231000.000			33.732			-4.217
231100.000			33.732			-4.217
231201.000			33.733			-4.217
231301.000			33.732			-4.216
231401.000			33.731			-4.216
231501.000			33.731			-4.216
231600.000			33.731			-4.216
231700.000			33.731			-4.216
231801.000			33.730			-4.216
231900.000			33.729			-4.216
232000.000			33.729			-4.216
232101.000			33.729			-4.216
232201.000			33.729			-4.216
232301.000			33.728			-4.216
232401.000			33.728			-4.216
232500.000			33.728			-4.216
232600.000			33.728			-4.216
232701.000			33.728			-4.216
232800.000			33.727			-4.216
232900.000			33.727			-4.216
233001.000			33.727			-4.216
233101.000			33.726			-4.216
233201.000			33.726			-4.216
233301.000			33.726			-4.216
233400.000			33.726			-4.216
233500.000			33.726			-4.216
233601.000			33.726			-4.216
233700.000			33.725			-4.216
233800.000			33.724			-4.216
233901.000			33.724			-4.216
234001.000			33.724			-4.216
234102.000			33.724			-4.216
234201.000			33.723			-4.215
234300.000			33.724			-4.215
234401.000			33.723			-4.215
234500.000			33.724			-4.215
234600.000			33.725			-4.216
234701.000			33.724			-4.216
234800.000			33.724			-4.215
234900.000			33.723			-4.215
235002.000			33.722			-4.215
235101.000			33.721			-4.215
235200.000			33.722			-4.215
235301.000			33.721			-4.215
235400.000			33.720			-4.215
235500.000			33.720			-4.215
235601.000			33.721			-4.215
235700.000			33.721			-4.215
235800.000			33.721			-4.215
235902.000			33.720			-4.215
236001.000			33.718			-4.215
236100.000			33.718			-4.215
236201.000			33.718			-4.215
236300.000			33.718			-4.215
236400.000			33.718			-4.215
236501.000			33.718			-4.215
236600.000			33.718			-4.215
236700.000			33.717			-4.215
236802.000			33.717			-4.215
236901.000			33.717			-4.215
237001.000			33.716			-4.215
237101.000			33.717			-4.215
237200.000			33.717			-4.215
237301.000			33.717			-4.215
237400.000			33.716			-4.215
237500.000			33.715			-4.214
237601.000			33.715			-4.214
237700.000			33.716			-4.214
237801.000			33.716			-4.214
237902.000			33.714			-4.214
238000.000			33.713			-4.214
238100.000			33.713			-4.214
238201.000			33.713			-4.214
238300.000			33.713			-4.214
238400.000			33.712			-4.214
238501.000			33.713			-4.214
238600.000			33.712			-4.214
238701.000			33.711			-4.214
238802.000			33.711			-4.214
238901.000			33.711			-4.214
239000.000			33.711			-4.214
239101.000			33.711			-4.214
239200.000			33.710			-4.214
239300.000			33.710			-4.214
239401.000			33.711			-4.214
239500.000			33.711			-4.214
239601.000			33.709			-4.214
239702.000			33.709			-4.214
239801.000			33.709			-4.214
239900.000			33.708			-4.214
240001.000			33.708			-4.214
240100.000			33.709			-4.214
240200.000			33.708			-4.214
240301.000			33.708			-4.213
240400.000			33.707			-4.213
240501.000			33.708			-4.213
240601.000			33.709			-4.214
240701.000			33.708			-4.213
240801.000			33.706			-4.213
240900.000			33.706			-4.213
241000.000			33.706			-4.213
241101.000			33.706			-4.213
241200.000			33.706			-4.213
241300.000			33.705			-4.213
241401.000			33.705			-4.213
241501.000			33.705			-4.213
241601.000			33.704			-4.213
241701.000			33.704			-4.213
241800.000			33.704			-4.213
241900.000			33.703			-4.213
242001.000			33.704			-4.213
242100.000			33.703			-4.213
242200.000			33.703			-4.213
242301.000			33.702			-4.213
242401.000			33.701			-4.213
242501.000			33.702			-4.213
242601.000			33.701			-4.213
242700.000			33.700			-4.213
242800.000			33.701			-4.213
242901.000			33.701			-4.213
243000.000			33.701			-4.213
243100.000			33.701			-4.213
243201.000			33.702			-4.213
243301.000			33.701			-4.213
243401.000			33.701			-4.213
243501.000			33.700			-4.213
243600.000			33.700			-4.212
243701.000			33.699			-4.212
243800.000			33.699			-4.212
243900.000			33.699			-4.212
244001.000			33.699			-4.212
244100.000			33.698			-4.212
244201.000			33.698			-4.212
244302.000			33.699			-4.212
244401.000			33.698			-4.212
244500.000			33.698			-4.212
244601.000			33.697			-4.212
244700.000			33.696			-4.212
244800.000			33.697			-4.212
244901.000			33.697			-4.212
245000.000			33.696			-4.212
245100.000			33.695			-4.212
245202.000			33.695			-4.212
245301.000			33.694			-4.212
245401.000			33.695			-4.212
245501.000			33.695			-4.212
245600.000			33.693			-4.212
245700.000			33.694			-4.212
245801.000			33.694			-4.212
245900.000			33.693			-4.212
246000.000			33.693			-4.212
246101.000			33.693			-4.212
246201.000			33.693			-4.212
246301.000			33.693			-4.212
246401.000			33.692			-4.211
246500.000			33.691			-4.211
246600.000			33.692			-4.212
246701.000			33.692			-4.211
246800.000			33.691			-4.211
246901.000			33.691			-4.211
247000.000			33.690			-4.211
247100.000			33.691			-4.211
247202.000			33.691			-4.211
247301.000			33.690			-4.211
247400.000			33.689			-4.211
247501.000			33.689			-4.211
247600.000			33.689			-4.211
247700.000			33.689			-4.211
247801.000			33.689			-4.211
247900.000			33.688			-4.211
248000.000			33.688			-4.211
248101.000			33.687			-4.211
248201.000			33.688			-4.211
248301.000			33.687			-4.211
248401.000			33.687			-4.211
248500.000			33.687			-4.211
248600.000			33.687			-4.211
248701.000			33.687			-4.211
248800.000			33.686			-4.211
248900.000			33.687			-4.211
249001.000			33.686			-4.211
249100.000			33.686			-4.211
249201.000			33.685			-4.211
249302.000			33.685			-4.211
249400.000			33.684			-4.211
249500.000			33.685			-4.211
249601.000			33.685			-4.211
249700.000			33.684			-4.210
249800.000			33.683			-4.210
249901.000			33.684			-4.210
250000.000			33.683			-4.210
250101.000			33.683			-4.210
250201.000			33.683			-4.210
250301.000			33.683			-4.210
250402.000			33.682			-4.210
250500.000			33.682			-4.210
250600.000			33.682			-4.210
250701.000			33.682			-4.210
250800.000			33.682			-4.210
250900.000			33.681			-4.210
251001.000			33.681			-4.210
251101.000			33.681			-4.210
251201.000			33.680			-4.210
251302.000			33.679			-4.210
251400.000			33.679			-4.210
251500.000			33.679			-4.210
251601.000			33.680			-4.210
251700.000			33.678			-4.210
251800.000			33.678			-4.210
251901.000			33.678			-4.210
252000.000			33.678			-4.210
252101.000			33.678			-4.210
252202.000			33.678			-4.210
252301.000			33.678			-4.210
252400.000			33.676			-4.210
252501.000			33.676			-4.210
252600.000			33.676			-4.210
252700.000			33.676			-4.210
252801.000			33.676			-4.209
252900.000			33.677			-4.210
253000.000			33.676			-4.210
253102.000			33.676			-4.209
253201.000			33.675			-4.209
253301.000			33.675			-4.209
253400.000			33.676			-4.209
253500.000			33.674			-4.209
253601.000			33.675			-4.209
253700.000			33.674			-4.209
253800.000			33.674			-4.209
253901.000			33.674			-4.209
254001.000			33.673			-4.209
254101.000			33.672			-4.209
254202.000			33.671			-4.209
254300.000			33.671			-4.209
254400.000			33.672			-4.209
254501.000			33.673			-4.209
254600.000			33.672			-4.209
254700.000			33.672			-4.209
254801.000			33.672			-4.209
254900.000			33.671			-4.209
255001.000			33.671			-4.209
255102.000			33.671			-4.209
255201.000			33.671			-4.209
255300.000			33.670			-4.209
255401.000			33.670			-4.209
255500.000			33.670			-4.209
255600.000			33.670			-4.209
255701.000			33.668			-4.209
255800.000			33.669			-4.209
255900.000			33.669			-4.209
256002.000			33.668			-4.209
256101.000			33.668			-4.209
256200.000			33.667			-4.208
256301.000			33.667			-4.208
256400.000			33.667			-4.208
256501.000			33.668			-4.208
256600.000			33.667			-4.208
256700.000			33.667			-4.208
256801.000			33.668			-4.208
256901.000			33.667			-4.208
257001.000			33.666			-4.208
257102.000			33.665			-4.208
257200.000			33.665			-4.208
257300.000			33.665			-4.208
257401.000			33.666			-4.208
257500.000			33.665			-4.208
257600.000			33.664			-4.208
257701.000			33.665			-4.208
257800.000			33.665			-4.208
257901.000			33.664			-4.208
258002.000			33.663			-4.208
258101.000			33.664			-4.208
258200.000			33.662			-4.208
258301.000			33.662			-4.208
258400.000			33.662			-4.208
258500.000			33.662			-4.208
258601.000			33.662			-4.208
258700.000			33.662			-4.208
258800.000			33.661			-4.208
258902.000			33.661			-4.208
259001.000			33.660			-4.208
259100.000			33.661			-4.208
259201.000			33.661			-4.208
259300.000			33.661			-4.208
259400.000			33.660			-4.208
259501.000			33.659			-4.207
259600.000			33.660			-4.208
259701.000			33.660			-4.208
259801.000			33.659			-4.207
259901.000			33.658			-4.207
260002.000			33.659			-4.207
260100.000			33.659			-4.207
260200.000			33.658			-4.207
260301.000			33.659			-4.207
260400.000			33.659			-4.207
260500.000			33.658			-4.207
260601.000			33.657			-4.207
260700.000			33.658			-4.207
260801.000			33.657			-4.207
260902.000			33.657			-4.207
261001.000			33.658			-4.207
261100.000			33.656			-4.207
261201.000			33.656			-4.207
261300.000			33.656			-4.207
261400.000			33.656			-4.207
261501.000			33.656			-4.207
261600.000			33.656			-4.207
261700.000			33.656			-4.207
261802.000			33.655			-4.207
261901.000			33.654			-4.207
262000.000			33.655			-4.207
262101.000			33.655			-4.207
262200.000			33.655			-4.207
262300.000			33.655			-4.207
262401.000			33.654			-4.207
262500.000			33.653			-4.207
262600.000			33.653			-4.207
262702.000			33.653			-4.207
262801.000			33.653			-4.207
262902.000			33.653			-4.207
263000.000			33.653			-4.207
263100.000			33.652			-4.207
263201.000			33.653			-4.207
263300.000			33.651			-4.206
263400.000			33.651			-4.206
263501.000			33.650			-4.206
263601.000			33.651			-4.206
263701.000			33.651			-4.206
263802.000			33.651			-4.206
263900.000			33.651			-4.206
264000.000			33.651			-4.206
264101.000			33.651			-4.206
264200.000			33.649			-4.206
264300.000			33.649			-4.206
264401.000			33.649			-4.206
264500.000			33.649			-4.206
264601.000			33.648			-4.206
264702.000			33.648			-4.206
264801.000			33.649			-4.206
264900.000			33.648			-4.206
265001.000			33.648			-4.206
265100.000			33.647			-4.206
265200.000			33.647			-4.206
265301.000			33.647			-4.206
265400.000			33.647			-4.206
265500.000			33.646			-4.206
265602.000			33.646			-4.206
265701.000			33.646			-4.206
265800.000			33.645			-4.206
265901.000			33.645			-4.206
266000.000			33.645			-4.206
266101.000			33.645			-4.206
266200.000			33.646			-4.206
266300.000			33.644			-4.206
266401.000			33.644			-4.205
266501.000			33.643			-4.205
266601.000			33.642			-4.205
266702.000			33.644			-4.205
266800.000			33.644			-4.205
266900.000			33.643			-4.205
267001.000			33.643			-4.205
267100.000			33.642			-4.205
267200.000			33.642			-4.205
267301.000			33.642			-4.205
267400.000			33.642			-4.205
267501.000			33.642			-4.205
267602.000			33.641			-4.205
267700.000			33.641			-4.205
267800.000			33.641			-4.205
267901.000			33.640			-4.205
268000.000			33.641			-4.205
268100.000			33.642			-4.205
268201.000			33.641			-4.205
268300.000			33.640			-4.205
268401.000			33.639			-4.205
268502.000			33.638			-4.205
268601.000			33.638			-4.205
268700.000			33.638			-4.205
268801.000			33.638			-4.205
268900.000			33.637			-4.205
269000.000			33.638			-4.205
269101.000			33.638			-4.205
269200.000			33.638			-4.205
269301.000			33.638			-4.205
269401.000			33.638			-4.205
269501.000			33.638			-4.205
269601.000			33.638			-4.205
269700.000			33.638			-4.205
269800.000			33.636			-4.205
269901.000			33.636			-4.205
270000.000			33.637			-4.205
270100.000			33.637			-4.205
270201.000			33.637			-4.205
270301.000			33.636			-4.205
270401.000			33.636			-4.204
270502.000			33.635			-4.204
270600.000			33.635			-4.204
270700.000			33.635			-4.204
270801.000			33.635			-4.204
270900.000			33.635			-4.204
271000.000			33.635			-4.204
271101.000			33.635			-4.204
271200.000			33.635			-4.204
271301.000			33.633			-4.204
271402.000			33.634			-4.204
271500.000			33.634			-4.204
271600.000			33.633			-4.204
271701.000			33.632			-4.204
271800.000			33.633			-4.204
271900.000			33.632			-4.204
272001.000			33.632			-4.204
272100.000			33.632			-4.204
272201.000			33.632			-4.204
272302.000			33.632			-4.204
272401.000			33.631			-4.204
272501.000			33.631			-4.204
272600.000			33.632			-4.204
272700.000			33.630			-4.204
272801.000			33.630			-4.204
272900.000			33.631			-4.204
273000.000			33.630			-4.204
273102.000			33.631			-4.204
273201.000			33.631			-4.204
273301.000			33.630			-4.204
273401.000			33.628			-4.204
273500.000			33.629			-4.204
273600.000			33.629			-4.204
273701.000			33.628			-4.204
273800.000			33.628			-4.204
273900.000			33.628			-4.204
274001.000			33.628			-4.204
274101.000			33.628			-4.204
274201.000			33.627			-4.203
274301.000			33.627			-4.203
274400.000			33.627			-4.203
274500.000			33.627			-4.203
274601.000			33.628			-4.203
274700.000			33.628			-4.203
274800.000			33.627			-4.203
274901.000			33.625			-4.203
275001.000			33.625			-4.203
275101.000			33.625			-4.203
275202.000			33.624			-4.203
275300.000			33.624			-4.203
275400.000			33.625			-4.203
275501.000			33.625			-4.203
275600.000			33.624			-4.203
275701.000			33.624			-4.203
275800.000			33.623			-4.203
275900.000			33.623			-4.203
276002.000			33.623			-4.203
276101.000			33.623			-4.203
276200.000			33.623			-4.203
276301.000			33.622			-4.203
276400.000			33.623			-4.203
276500.000			33.623			-4.203
276601.000			33.622			-4.203
276700.000			33.621			-4.203
276800.000			33.622			-4.203
276902.000			33.622			-4.203
277001.000			33.621			-4.203
277101.000			33.620			-4.203
277201.000			33.621			-4.203
277300.000			33.621			-4.203
277400.000			33.621			-4.203
277501.000			33.621			-4.203
277600.000			33.620			-4.203
277700.000			33.620			-4.202
277802.000			33.620			-4.202
277901.000			33.620			-4.203
278001.000			33.619			-4.202
278101.000			33.619			-4.202
278200.000			33.619			-4.202
278300.000			33.618			-4.202
278401.000			33.617			-4.202
278500.000			33.618			-4.202
278600.000			33.618			-4.202
278701.000			33.618			-4.202
278801.000			33.617			-4.202
278902.000			33.618			-4.202
279001.000			33.617			-4.202
279100.000			33.617			-4.202
279201.000			33.617			-4.202
279300.000			33.616			-4.202
279400.000			33.616			-4.202
279501.000			33.616			-4.202
279600.000			33.616			-4.202
279700.000			33.616			-4.202
279802.000			33.615			-4.202
279901.000			33.615			-4.202
280001.000			33.614			-4.202
280101.000			33.614			-4.202
280200.000			33.615			-4.202
280300.000			33.615			-4.202
280401.000			33.614			-4.202
280500.000			33.613			-4.202
280600.000			33.613			-4.202
280702.000			33.613			-4.202
280801.000			33.612			-4.202
280901.000			33.613			-4.202
281001.000			33.612			-4.202
281100.000			33.612			-4.202
281200.000			33.613			-4.202
281301.000			33.612			-4.202
281400.000			33.611			-4.201
281500.000			33.611			-4.201
281602.000			33.610			-4.201
281701.000			33.609			-4.201
281801.000			33.610			-4.201
281901.000			33.610			-4.201
282000.000			33.609			-4.201
282101.000			33.609			-4.201
282200.000			33.609			-4.201
282300.000			33.609			-4.201
282401.000			33.609			-4.201
282500.000			33.610			-4.201
282601.000			33.609			-4.201
282702.000			33.609			-4.201
282800.000			33.608			-4.201
282900.000			33.607			-4.201
283001.000			33.607			-4.201
283100.000			33.607			-4.201
283200.000			33.607			-4.201
283301.000			33.608			-4.201
283400.000			33.607			-4.201
283501.000			33.607			-4.201
283602.000			33.606			-4.201
283701.000			33.606			-4.201
283800.000			33.606			-4.201
283901.000			33.606			-4.201
284000.000			33.605			-4.201
284100.000			33.606			-4.201
284201.000			33.606			-4.201
284300.000			33.605			-4.201
284400.000			33.604			-4.201
284502.000			33.604			-4.201
284601.000			33.604			-4.200
284700.000			33.604			-4.200
284801.000			33.604			-4.200
284900.000			33.604			-4.200
285000.000			33.604			-4.200
285101.000			33.603			-4.200
285200.000			33.603			-4.200
285301.000			33.603			-4.200
285401.000			33.603			-4.200
285501.000			33.602			-4.200
285601.000			33.601			-4.200
285700.000			33.602			-4.200
285800.000			33.601			-4.200
285901.000			33.601			-4.200
286000.000			33.602			-4.200
286100.000			33.602			-4.200
286201.000			33.601			-4.200
286301.000			33.601			-4.200
286401.000			33.600			-4.200
286502.000			33.599			-4.200
286600.000			33.600			-4.200
286700.000			33.599			-4.200
286801.000			33.599			-4.200
286900.000			33.599			-4.200
287000.000			33.599			-4.200
287101.000			33.599			-4.200
287200.000			33.597			-4.200
287301.000			33.597			-4.200
287402.000			33.596			-4.200
287501.000			33.596			-4.200
287600.000			33.597			-4.200
287701.000			33.596			-4.200
287800.000			33.596			-4.200
287900.000			33.596			-4.200
288001.000			33.595			-4.199
288100.000			33.595			-4.199
288200.000			33.595			-4.199
288302.000			33.596			-4.199
288401.000			33.595			-4.199
288502.000			33.596			-4.199
288600.000			33.595			-4.199
288700.000			33.594			-4.199
288801.000			33.594			-4.199
288900.000			33.594			-4.199
289000.000			33.595			-4.199
289101.000			33.594			-4.199
289200.000			33.594			-4.199
289300.000			33.594			-4.199
289402.000			33.593			-4.199
289501.000			33.593			-4.199
289600.000			33.593			-4.199
289701.000			33.593			-4.199
289800.000			33.591			-4.199
289900.000			33.591			-4.199
290001.000			33.592			-4.199
290100.000			33.592			-4.199
290200.000			33.592			-4.199
290302.000			33.592			-4.199
290401.000			33.591			-4.199
290501.000			33.591			-4.199
290601.000			33.591			-4.199
290700.000			33.592			-4.199
290800.000			33.591			-4.199
290901.000			33.590			-4.199
291000.000			33.589			-4.199
291100.000			33.590			-4.199
291201.000			33.589			-4.199
291301.000			33.589			-4.199
291401.000			33.590			-4.199
291501.000			33.590			-4.199
291600.000			33.589			-4.199
291701.000			33.588			-4.198
291800.000			33.587			-4.198
291900.000			33.587			-4.198
292001.000			33.587			-4.198
292100.000			33.587			-4.198
292200.000			33.587			-4.198
292302.000			33.587			-4.198
292401.000			33.586			-4.198
292500.000			33.586			-4.198
292601.000			33.586			-4.198
292700.000			33.587			-4.198
292800.000			33.586			-4.198
292901.000			33.585			-4.198
293000.000			33.586			-4.198
293100.000			33.586			-4.198
293202.000			33.585			-4.198
293301.000			33.585			-4.198
293401.000			33.585			-4.198
293501.000			33.584			-4.198
293600.000			33.584			-4.198
293700.000			33.586			-4.198
293801.000			33.584			-4.198
293900.000			33.584			-4.198
294000.000			33.583			-4.198
294101.000			33.584			-4.198
294201.000			33.584			-4.198
294301.000			33.582			-4.198
294401.000			33.582			-4.198
294500.000			33.583			-4.198
294600.000			33.583			-4.198
294701.000			33.582			-4.198
294800.000			33.582			-4.198
294901.000			33.583			-4.198
295000.000			33.581			-4.198
295100.000			33.581			-4.198
295202.000			33.580			-4.198
295301.000			33.580			-4.198
295400.000			33.580			-4.197
295501.000			33.580			-4.198
295600.000			33.580			-4.197
295700.000			33.579			-4.197
295801.000			33.580			-4.198
295900.000			33.581			-4.198
296000.000			33.579			-4.197
296102.000			33.579			-4.197
296201.000			33.580			-4.197
296301.000			33.579			-4.197
296401.000			33.578			-4.197
296500.000			33.578			-4.197
296600.000			33.579			-4.197
296701.000			33.578			-4.197
296800.000			33.578			-4.197
296900.000			33.577			-4.197
297001.000			33.577			-4.197
297101.000			33.577			-4.197
297201.000			33.577			-4.197
297301.000			33.576			-4.197
297400.000			33.576			-4.197
297500.000			33.576			-4.197
297601.000			33.576			-4.197
297700.000			33.574			-4.197
297800.000			33.575			-4.197
297901.000			33.577			-4.197
298000.000			33.576			-4.197
298102.000			33.575			-4.197
298201.000			33.577			-4.197
298300.000			33.576			-4.197
298401.000			33.574			-4.197
298500.000			33.574			-4.197
298600.000			33.575			-4.197
298701.000			33.574			-4.197
298800.000			33.574			-4.197
298900.000			33.575			-4.197
299001.000			33.575			-4.197
299101.000			33.573			-4.197
299201.000			33.573			-4.197
299301.000			33.574			-4.197
299400.000			33.574			-4.197
299500.000			33.573			-4.197
299601.000			33.572			-4.197
299700.000			33.572			-4.197
299800.000			33.573			-4.197
299901.000			33.572			-4.196
