# Acquired on 20/12/2023 12:31:20 
# SPIDER: Creep_5mm_07714532C-2
# CREEP MEASUREMENT

# time [ms]		force [N]		stiffness [N/mm]
0.000			-14.659			-2.932
101.000			-15.637			-3.127
200.000			-15.993			-3.199
300.000			-16.003			-3.201
402.000			-15.947			-3.189
501.000			-15.903			-3.181
601.000			-15.836			-3.167
700.000			-15.807			-3.161
800.000			-15.782			-3.156
901.000			-15.761			-3.152
1000.000			-15.739			-3.148
1101.000			-15.720			-3.144
1202.000			-15.702			-3.140
1300.000			-15.688			-3.138
1400.000			-15.659			-3.132
1501.000			-15.644			-3.129
1600.000			-15.632			-3.126
1700.000			-15.620			-3.124
1801.000			-15.609			-3.122
1901.000			-15.598			-3.120
2001.000			-15.586			-3.117
2101.000			-15.566			-3.113
2200.000			-15.557			-3.111
2300.000			-15.548			-3.110
2401.000			-15.539			-3.108
2500.000			-15.530			-3.106
2600.000			-15.522			-3.104
2702.000			-15.515			-3.103
2801.000			-15.507			-3.101
2900.000			-15.492			-3.098
3001.000			-15.485			-3.097
3100.000			-15.478			-3.096
3200.000			-15.470			-3.094
3301.000			-15.464			-3.093
3401.000			-15.458			-3.092
3501.000			-15.451			-3.090
3601.000			-15.440			-3.088
3700.000			-15.434			-3.087
3801.000			-15.429			-3.086
3900.000			-15.423			-3.085
4000.000			-15.417			-3.083
4101.000			-15.413			-3.083
4201.000			-15.407			-3.081
4301.000			-15.398			-3.080
4401.000			-15.392			-3.078
4500.000			-15.387			-3.077
4600.000			-15.383			-3.077
4701.000			-15.378			-3.076
4800.000			-15.373			-3.075
4900.000			-15.369			-3.074
5002.000			-15.364			-3.073
5101.000			-15.356			-3.071
5200.000			-15.352			-3.070
5301.000			-15.348			-3.070
5400.000			-15.343			-3.069
5500.000			-15.339			-3.068
5601.000			-15.335			-3.067
5701.000			-15.332			-3.066
5801.000			-15.324			-3.065
5901.000			-15.321			-3.064
6000.000			-15.317			-3.063
6100.000			-15.312			-3.062
6201.000			-15.310			-3.062
6300.000			-15.306			-3.061
6400.000			-15.302			-3.060
6502.000			-15.296			-3.059
6601.000			-15.292			-3.058
6700.000			-15.289			-3.058
6801.000			-15.286			-3.057
6900.000			-15.282			-3.056
7001.000			-15.278			-3.056
7100.000			-15.275			-3.055
7200.000			-15.273			-3.055
7302.000			-15.267			-3.053
7401.000			-15.264			-3.053
7500.000			-15.261			-3.052
7601.000			-15.258			-3.052
7700.000			-15.256			-3.051
7800.000			-15.253			-3.051
7901.000			-15.250			-3.050
8000.000			-15.243			-3.049
8101.000			-15.240			-3.048
8202.000			-15.238			-3.048
8300.000			-15.236			-3.047
8400.000			-15.232			-3.046
8501.000			-15.229			-3.046
8600.000			-15.227			-3.045
8700.000			-15.222			-3.044
8802.000			-15.221			-3.044
8901.000			-15.218			-3.044
9000.000			-15.215			-3.043
9101.000			-15.211			-3.042
9200.000			-15.209			-3.042
9300.000			-15.208			-3.042
9401.000			-15.205			-3.041
9500.000			-15.200			-3.040
9601.000			-15.197			-3.039
9702.000			-15.195			-3.039
9800.000			-15.193			-3.039
9900.000			-15.190			-3.038
10001.000			-15.188			-3.038
10100.000			-15.186			-3.037
10201.000			-15.180			-3.036
10301.000			-15.179			-3.036
10401.000			-15.178			-3.036
10502.000			-15.175			-3.035
10600.000			-15.172			-3.034
10700.000			-15.169			-3.034
10801.000			-15.168			-3.034
10900.000			-15.163			-3.033
11000.000			-15.161			-3.032
11102.000			-15.160			-3.032
11201.000			-15.158			-3.032
11300.000			-15.156			-3.031
11401.000			-15.154			-3.031
11500.000			-15.152			-3.030
11600.000			-15.149			-3.030
11701.000			-15.148			-3.030
11800.000			-15.144			-3.029
11901.000			-15.141			-3.028
12002.000			-15.141			-3.028
12100.000			-15.139			-3.028
12200.000			-15.137			-3.027
12301.000			-15.135			-3.027
12400.000			-15.131			-3.026
12500.000			-15.129			-3.026
12601.000			-15.128			-3.026
12701.000			-15.126			-3.025
12801.000			-15.124			-3.025
12901.000			-15.122			-3.024
13000.000			-15.121			-3.024
13100.000			-15.118			-3.024
13201.000			-15.115			-3.023
13300.000			-15.114			-3.023
13401.000			-15.112			-3.022
13501.000			-15.111			-3.022
13601.000			-15.109			-3.022
13701.000			-15.108			-3.022
13800.000			-15.106			-3.021
13900.000			-15.101			-3.020
14001.000			-15.100			-3.020
14100.000			-15.098			-3.020
14200.000			-15.097			-3.019
14302.000			-15.095			-3.019
14401.000			-15.092			-3.018
14500.000			-15.091			-3.018
14601.000			-15.089			-3.018
14700.000			-15.087			-3.017
14800.000			-15.084			-3.017
14901.000			-15.084			-3.017
15000.000			-15.082			-3.016
15101.000			-15.080			-3.016
15202.000			-15.079			-3.016
15300.000			-15.078			-3.016
15400.000			-15.075			-3.015
15501.000			-15.073			-3.015
15600.000			-15.071			-3.014
15700.000			-15.069			-3.014
15801.000			-15.069			-3.014
15901.000			-15.068			-3.014
16001.000			-15.066			-3.013
16101.000			-15.063			-3.013
16200.000			-15.062			-3.012
16300.000			-15.060			-3.012
16401.000			-15.058			-3.012
16500.000			-15.058			-3.012
16602.000			-15.058			-3.012
16701.000			-15.056			-3.011
16801.000			-15.052			-3.010
16901.000			-15.051			-3.010
17000.000			-15.049			-3.010
17100.000			-15.050			-3.010
17201.000			-15.048			-3.010
17300.000			-15.046			-3.009
17400.000			-15.045			-3.009
17502.000			-15.043			-3.009
17601.000			-15.040			-3.008
17700.000			-15.039			-3.008
17801.000			-15.038			-3.008
17900.000			-15.037			-3.007
18000.000			-15.036			-3.007
18101.000			-15.034			-3.007
18201.000			-15.033			-3.007
18301.000			-15.029			-3.006
18401.000			-15.029			-3.006
18500.000			-15.028			-3.006
18600.000			-15.027			-3.005
18701.000			-15.026			-3.005
18800.000			-15.024			-3.005
18900.000			-15.023			-3.005
19002.000			-15.021			-3.004
19101.000			-15.019			-3.004
19200.000			-15.018			-3.004
19301.000			-15.017			-3.003
19400.000			-15.015			-3.003
19500.000			-15.015			-3.003
19601.000			-15.013			-3.003
19700.000			-15.013			-3.003
19802.000			-15.009			-3.002
19901.000			-15.009			-3.002
20000.000			-15.008			-3.002
20101.000			-15.005			-3.001
20200.000			-15.005			-3.001
20300.000			-15.004			-3.001
20401.000			-15.003			-3.001
20500.000			-15.001			-3.000
20601.000			-14.999			-3.000
20702.000			-14.998			-3.000
20800.000			-14.997			-2.999
20900.000			-14.996			-2.999
21001.000			-14.995			-2.999
21100.000			-14.993			-2.999
21200.000			-14.990			-2.998
21301.000			-14.989			-2.998
21401.000			-14.989			-2.998
21501.000			-14.988			-2.998
21601.000			-14.987			-2.997
21700.000			-14.987			-2.997
21800.000			-14.985			-2.997
21901.000			-14.984			-2.997
22000.000			-14.982			-2.996
22100.000			-14.980			-2.996
22202.000			-14.979			-2.996
22301.000			-14.979			-2.996
22400.000			-14.978			-2.996
22501.000			-14.977			-2.995
22600.000			-14.976			-2.995
22700.000			-14.974			-2.995
22801.000			-14.973			-2.995
22900.000			-14.971			-2.994
23002.000			-14.971			-2.994
23101.000			-14.970			-2.994
23200.000			-14.969			-2.994
23301.000			-14.968			-2.994
23400.000			-14.966			-2.993
23500.000			-14.965			-2.993
23601.000			-14.963			-2.993
23700.000			-14.963			-2.993
23801.000			-14.962			-2.992
23902.000			-14.961			-2.992
24001.000			-14.959			-2.992
24100.000			-14.958			-2.992
24201.000			-14.956			-2.991
24300.000			-14.955			-2.991
24400.000			-14.955			-2.991
24501.000			-14.955			-2.991
24601.000			-14.954			-2.991
24701.000			-14.953			-2.991
24801.000			-14.952			-2.990
24900.000			-14.949			-2.990
25000.000			-14.949			-2.990
25101.000			-14.947			-2.989
25200.000			-14.947			-2.989
25300.000			-14.947			-2.989
25401.000			-14.945			-2.989
25501.000			-14.944			-2.989
25601.000			-14.943			-2.989
25701.000			-14.941			-2.988
25800.000			-14.941			-2.988
25900.000			-14.940			-2.988
26001.000			-14.939			-2.988
26100.000			-14.938			-2.988
26201.000			-14.938			-2.988
26301.000			-14.936			-2.987
26401.000			-14.935			-2.987
26501.000			-14.934			-2.987
26600.000			-14.933			-2.987
26700.000			-14.932			-2.986
26801.000			-14.931			-2.986
26900.000			-14.931			-2.986
27000.000			-14.929			-2.986
27102.000			-14.928			-2.986
27201.000			-14.927			-2.985
27300.000			-14.926			-2.985
27401.000			-14.925			-2.985
27500.000			-14.925			-2.985
27600.000			-14.923			-2.985
27701.000			-14.923			-2.985
27800.000			-14.921			-2.984
27901.000			-14.920			-2.984
28002.000			-14.920			-2.984
28101.000			-14.919			-2.984
28200.000			-14.918			-2.984
28301.000			-14.916			-2.983
28400.000			-14.915			-2.983
28500.000			-14.915			-2.983
28601.000			-14.914			-2.983
28700.000			-14.912			-2.982
28801.000			-14.911			-2.982
28902.000			-14.911			-2.982
29000.000			-14.910			-2.982
29100.000			-14.908			-2.982
29201.000			-14.908			-2.982
29300.000			-14.907			-2.981
29401.000			-14.906			-2.981
29500.000			-14.905			-2.981
29601.000			-14.904			-2.981
29702.000			-14.904			-2.981
29800.000			-14.903			-2.981
29900.000			-14.903			-2.981
30001.000			-14.901			-2.980
30100.000			-14.899			-2.980
30200.000			-14.899			-2.980
30301.000			-14.899			-2.980
30401.000			-14.899			-2.980
30501.000			-14.897			-2.979
30601.000			-14.895			-2.979
30700.000			-14.895			-2.979
30800.000			-14.894			-2.979
30901.000			-14.894			-2.979
31000.000			-14.893			-2.979
31100.000			-14.892			-2.978
31202.000			-14.891			-2.978
31301.000			-14.890			-2.978
31400.000			-14.889			-2.978
31501.000			-14.887			-2.977
31600.000			-14.887			-2.977
31700.000			-14.886			-2.977
31801.000			-14.885			-2.977
31900.000			-14.885			-2.977
32001.000			-14.884			-2.977
32102.000			-14.883			-2.977
32200.000			-14.882			-2.976
32300.000			-14.881			-2.976
32401.000			-14.880			-2.976
32500.000			-14.879			-2.976
32601.000			-14.879			-2.976
32700.000			-14.877			-2.975
32800.000			-14.877			-2.975
32902.000			-14.877			-2.975
33001.000			-14.875			-2.975
33100.000			-14.875			-2.975
33201.000			-14.874			-2.975
33300.000			-14.873			-2.975
33400.000			-14.873			-2.975
33501.000			-14.872			-2.974
33600.000			-14.871			-2.974
33701.000			-14.870			-2.974
33802.000			-14.869			-2.974
33900.000			-14.869			-2.974
34000.000			-14.869			-2.974
34101.000			-14.868			-2.974
34200.000			-14.866			-2.973
34300.000			-14.865			-2.973
34401.000			-14.865			-2.973
34501.000			-14.864			-2.973
34601.000			-14.864			-2.973
34701.000			-14.862			-2.972
34800.000			-14.861			-2.972
34900.000			-14.861			-2.972
35001.000			-14.860			-2.972
35100.000			-14.860			-2.972
35200.000			-14.859			-2.972
35302.000			-14.858			-2.972
35401.000			-14.857			-2.971
35500.000			-14.856			-2.971
35601.000			-14.855			-2.971
35700.000			-14.855			-2.971
35801.000			-14.855			-2.971
35900.000			-14.854			-2.971
36000.000			-14.852			-2.970
36102.000			-14.851			-2.970
36201.000			-14.852			-2.970
36300.000			-14.851			-2.970
36401.000			-14.850			-2.970
36500.000			-14.850			-2.970
36600.000			-14.849			-2.970
36701.000			-14.848			-2.970
36800.000			-14.847			-2.969
36901.000			-14.845			-2.969
37002.000			-14.844			-2.969
37100.000			-14.844			-2.969
37200.000			-14.844			-2.969
37301.000			-14.845			-2.969
37400.000			-14.843			-2.969
37500.000			-14.842			-2.968
37601.000			-14.841			-2.968
37701.000			-14.840			-2.968
37801.000			-14.841			-2.968
37901.000			-14.840			-2.968
38000.000			-14.839			-2.968
38100.000			-14.837			-2.967
38201.000			-14.836			-2.967
38300.000			-14.837			-2.967
38400.000			-14.835			-2.967
38502.000			-14.834			-2.967
38601.000			-14.834			-2.967
38700.000			-14.833			-2.967
38801.000			-14.833			-2.967
38900.000			-14.832			-2.966
39001.000			-14.831			-2.966
39100.000			-14.831			-2.966
39200.000			-14.831			-2.966
39302.000			-14.829			-2.966
39401.000			-14.828			-2.966
39501.000			-14.828			-2.966
39601.000			-14.827			-2.965
39700.000			-14.827			-2.965
39800.000			-14.826			-2.965
39901.000			-14.825			-2.965
40000.000			-14.824			-2.965
40100.000			-14.824			-2.965
40202.000			-14.823			-2.965
40301.000			-14.822			-2.964
40400.000			-14.822			-2.964
40501.000			-14.820			-2.964
40600.000			-14.819			-2.964
40700.000			-14.819			-2.964
40801.000			-14.819			-2.964
40901.000			-14.820			-2.964
41001.000			-14.819			-2.964
41101.000			-14.816			-2.963
41200.000			-14.816			-2.963
41300.000			-14.815			-2.963
41401.000			-14.815			-2.963
41500.000			-14.815			-2.963
41600.000			-14.814			-2.963
41702.000			-14.814			-2.963
41801.000			-14.813			-2.963
41900.000			-14.813			-2.963
42001.000			-14.812			-2.962
42100.000			-14.811			-2.962
42201.000			-14.811			-2.962
42300.000			-14.810			-2.962
42400.000			-14.808			-2.962
42502.000			-14.807			-2.961
42601.000			-14.807			-2.961
42700.000			-14.807			-2.961
42801.000			-14.807			-2.961
42900.000			-14.806			-2.961
43000.000			-14.805			-2.961
43101.000			-14.804			-2.961
43200.000			-14.804			-2.961
43301.000			-14.803			-2.961
43402.000			-14.802			-2.960
43500.000			-14.801			-2.960
43600.000			-14.801			-2.960
43701.000			-14.801			-2.960
43800.000			-14.801			-2.960
43900.000			-14.800			-2.960
44001.000			-14.799			-2.960
44101.000			-14.798			-2.960
44201.000			-14.798			-2.960
44301.000			-14.798			-2.960
44400.000			-14.797			-2.959
44500.000			-14.795			-2.959
44601.000			-14.795			-2.959
44700.000			-14.793			-2.959
44800.000			-14.793			-2.959
44902.000			-14.792			-2.958
45001.000			-14.793			-2.959
45100.000			-14.793			-2.959
45201.000			-14.793			-2.959
45300.000			-14.792			-2.958
45401.000			-14.791			-2.958
45500.000			-14.790			-2.958
45600.000			-14.789			-2.958
45702.000			-14.790			-2.958
45801.000			-14.789			-2.958
45901.000			-14.788			-2.958
46001.000			-14.787			-2.957
46100.000			-14.787			-2.957
46200.000			-14.786			-2.957
46301.000			-14.785			-2.957
46400.000			-14.784			-2.957
46500.000			-14.783			-2.957
46602.000			-14.784			-2.957
46701.000			-14.783			-2.957
46800.000			-14.783			-2.957
46901.000			-14.781			-2.956
47000.000			-14.782			-2.956
47100.000			-14.781			-2.956
47201.000			-14.780			-2.956
47300.000			-14.779			-2.956
47401.000			-14.779			-2.956
47502.000			-14.780			-2.956
47600.000			-14.779			-2.956
47700.000			-14.778			-2.956
47801.000			-14.777			-2.955
47900.000			-14.777			-2.955
48000.000			-14.776			-2.955
48101.000			-14.775			-2.955
48201.000			-14.774			-2.955
48301.000			-14.774			-2.955
48401.000			-14.774			-2.955
48500.000			-14.773			-2.955
48601.000			-14.773			-2.955
48700.000			-14.772			-2.954
48800.000			-14.772			-2.954
48901.000			-14.772			-2.954
49000.000			-14.771			-2.954
49101.000			-14.769			-2.954
49202.000			-14.770			-2.954
49300.000			-14.770			-2.954
49400.000			-14.768			-2.954
49501.000			-14.767			-2.953
49600.000			-14.767			-2.953
49700.000			-14.767			-2.953
49801.000			-14.767			-2.953
49901.000			-14.766			-2.953
50001.000			-14.765			-2.953
50101.000			-14.764			-2.953
50200.000			-14.763			-2.953
50300.000			-14.765			-2.953
50401.000			-14.762			-2.952
50500.000			-14.761			-2.952
50600.000			-14.761			-2.952
50702.000			-14.761			-2.952
50801.000			-14.760			-2.952
50900.000			-14.760			-2.952
51001.000			-14.760			-2.952
51100.000			-14.760			-2.952
51200.000			-14.760			-2.952
51301.000			-14.758			-2.952
51400.000			-14.757			-2.951
51501.000			-14.757			-2.951
51602.000			-14.756			-2.951
51700.000			-14.756			-2.951
51801.000			-14.755			-2.951
51900.000			-14.755			-2.951
52000.000			-14.753			-2.951
52101.000			-14.753			-2.951
52200.000			-14.753			-2.951
52301.000			-14.753			-2.951
52402.000			-14.752			-2.950
52500.000			-14.752			-2.950
52600.000			-14.751			-2.950
52701.000			-14.751			-2.950
52800.000			-14.750			-2.950
52900.000			-14.750			-2.950
53001.000			-14.748			-2.950
53101.000			-14.749			-2.950
53201.000			-14.749			-2.950
53301.000			-14.748			-2.950
53400.000			-14.748			-2.950
53500.000			-14.747			-2.949
53601.000			-14.746			-2.949
53700.000			-14.746			-2.949
53800.000			-14.745			-2.949
53902.000			-14.745			-2.949
54001.000			-14.745			-2.949
54100.000			-14.743			-2.949
54201.000			-14.743			-2.949
54300.000			-14.742			-2.948
54400.000			-14.742			-2.948
54501.000			-14.743			-2.949
54600.000			-14.742			-2.948
54701.000			-14.740			-2.948
54802.000			-14.739			-2.948
54900.000			-14.739			-2.948
55001.000			-14.740			-2.948
55100.000			-14.740			-2.948
55200.000			-14.738			-2.948
55301.000			-14.737			-2.947
55400.000			-14.738			-2.948
55500.000			-14.737			-2.947
55602.000			-14.736			-2.947
55701.000			-14.736			-2.947
55800.000			-14.736			-2.947
55901.000			-14.735			-2.947
56000.000			-14.736			-2.947
56100.000			-14.736			-2.947
56201.000			-14.734			-2.947
56300.000			-14.733			-2.947
56401.000			-14.733			-2.947
56502.000			-14.732			-2.946
56600.000			-14.731			-2.946
56700.000			-14.731			-2.946
56801.000			-14.731			-2.946
56900.000			-14.731			-2.946
57000.000			-14.730			-2.946
57101.000			-14.730			-2.946
57201.000			-14.728			-2.946
57301.000			-14.728			-2.946
57401.000			-14.728			-2.946
57500.000			-14.728			-2.946
57600.000			-14.727			-2.945
57701.000			-14.727			-2.945
57800.000			-14.726			-2.945
57900.000			-14.726			-2.945
58002.000			-14.726			-2.945
58101.000			-14.725			-2.945
58201.000			-14.724			-2.945
58300.000			-14.723			-2.945
58400.000			-14.723			-2.945
58501.000			-14.724			-2.945
58600.000			-14.723			-2.945
58700.000			-14.722			-2.944
58802.000			-14.722			-2.944
58901.000			-14.721			-2.944
59000.000			-14.721			-2.944
59101.000			-14.721			-2.944
59200.000			-14.720			-2.944
59300.000			-14.720			-2.944
59401.000			-14.720			-2.944
59500.000			-14.718			-2.944
59601.000			-14.718			-2.944
59702.000			-14.718			-2.944
59800.000			-14.717			-2.943
59900.000			-14.716			-2.943
60001.000			-14.716			-2.943
60100.000			-14.716			-2.943
60200.000			-14.715			-2.943
60301.000			-14.715			-2.943
60401.000			-14.715			-2.943
60501.000			-14.715			-2.943
60601.000			-14.715			-2.943
60700.000			-14.713			-2.943
60800.000			-14.713			-2.943
60901.000			-14.713			-2.943
61000.000			-14.712			-2.942
61100.000			-14.711			-2.942
61202.000			-14.712			-2.942
61301.000			-14.712			-2.942
61401.000			-14.711			-2.942
61500.000			-14.710			-2.942
61600.000			-14.708			-2.942
61701.000			-14.709			-2.942
61800.000			-14.709			-2.942
61900.000			-14.709			-2.942
62002.000			-14.708			-2.942
62101.000			-14.709			-2.942
62200.000			-14.708			-2.942
62301.000			-14.708			-2.942
62400.000			-14.707			-2.941
62500.000			-14.706			-2.941
62601.000			-14.706			-2.941
62700.000			-14.705			-2.941
62801.000			-14.704			-2.941
62902.000			-14.704			-2.941
63000.000			-14.704			-2.941
63100.000			-14.704			-2.941
63201.000			-14.703			-2.941
63300.000			-14.702			-2.940
63400.000			-14.703			-2.941
63501.000			-14.702			-2.940
63601.000			-14.701			-2.940
63701.000			-14.701			-2.940
63801.000			-14.701			-2.940
63900.000			-14.700			-2.940
64000.000			-14.700			-2.940
64101.000			-14.698			-2.940
64200.000			-14.699			-2.940
64300.000			-14.699			-2.940
64402.000			-14.698			-2.940
64501.000			-14.697			-2.939
64601.000			-14.696			-2.939
64700.000			-14.697			-2.939
64800.000			-14.697			-2.939
64901.000			-14.695			-2.939
65000.000			-14.695			-2.939
65100.000			-14.695			-2.939
65202.000			-14.695			-2.939
65301.000			-14.695			-2.939
65401.000			-14.695			-2.939
65501.000			-14.693			-2.939
65600.000			-14.693			-2.939
65700.000			-14.692			-2.938
65801.000			-14.692			-2.938
65900.000			-14.692			-2.938
66000.000			-14.690			-2.938
66102.000			-14.690			-2.938
66201.000			-14.691			-2.938
66300.000			-14.690			-2.938
66401.000			-14.690			-2.938
66500.000			-14.689			-2.938
66600.000			-14.688			-2.938
66701.000			-14.688			-2.938
66800.000			-14.688			-2.938
66901.000			-14.687			-2.937
67002.000			-14.686			-2.937
67100.000			-14.687			-2.937
67200.000			-14.687			-2.937
67301.000			-14.687			-2.937
67400.000			-14.687			-2.937
67500.000			-14.685			-2.937
67601.000			-14.685			-2.937
67701.000			-14.685			-2.937
67802.000			-14.683			-2.937
67901.000			-14.683			-2.937
68000.000			-14.684			-2.937
68101.000			-14.683			-2.937
68200.000			-14.682			-2.936
68300.000			-14.681			-2.936
68401.000			-14.682			-2.936
68500.000			-14.681			-2.936
68601.000			-14.682			-2.936
68702.000			-14.680			-2.936
68800.000			-14.680			-2.936
68900.000			-14.680			-2.936
69001.000			-14.678			-2.936
69100.000			-14.678			-2.936
69200.000			-14.678			-2.936
69301.000			-14.677			-2.935
69401.000			-14.677			-2.935
69501.000			-14.677			-2.935
69602.000			-14.676			-2.935
69700.000			-14.676			-2.935
69800.000			-14.676			-2.935
69901.000			-14.676			-2.935
70000.000			-14.674			-2.935
70100.000			-14.674			-2.935
70201.000			-14.674			-2.935
70301.000			-14.674			-2.935
70401.000			-14.672			-2.934
70501.000			-14.673			-2.935
70600.000			-14.673			-2.935
70700.000			-14.673			-2.935
70801.000			-14.672			-2.934
70900.000			-14.672			-2.934
71001.000			-14.671			-2.934
71101.000			-14.670			-2.934
71201.000			-14.670			-2.934
71301.000			-14.671			-2.934
71400.000			-14.670			-2.934
71500.000			-14.669			-2.934
71601.000			-14.668			-2.934
71700.000			-14.667			-2.933
71800.000			-14.668			-2.934
71902.000			-14.666			-2.933
72001.000			-14.667			-2.933
72100.000			-14.667			-2.933
72201.000			-14.666			-2.933
72300.000			-14.666			-2.933
72400.000			-14.665			-2.933
72501.000			-14.665			-2.933
72600.000			-14.665			-2.933
72700.000			-14.665			-2.933
72802.000			-14.663			-2.933
72901.000			-14.663			-2.933
73000.000			-14.663			-2.933
73101.000			-14.664			-2.933
73200.000			-14.663			-2.933
73300.000			-14.663			-2.933
73401.000			-14.661			-2.932
73500.000			-14.661			-2.932
73601.000			-14.661			-2.932
73702.000			-14.660			-2.932
73800.000			-14.660			-2.932
73900.000			-14.660			-2.932
74001.000			-14.659			-2.932
74100.000			-14.659			-2.932
74201.000			-14.659			-2.932
74300.000			-14.659			-2.932
74401.000			-14.658			-2.932
74502.000			-14.657			-2.931
74600.000			-14.657			-2.931
74700.000			-14.657			-2.931
74801.000			-14.657			-2.931
74900.000			-14.656			-2.931
75000.000			-14.656			-2.931
75101.000			-14.656			-2.931
75201.000			-14.655			-2.931
75301.000			-14.655			-2.931
75402.000			-14.654			-2.931
75500.000			-14.654			-2.931
75600.000			-14.653			-2.931
75701.000			-14.653			-2.931
75800.000			-14.652			-2.930
75900.000			-14.652			-2.930
76001.000			-14.652			-2.930
76101.000			-14.652			-2.930
76201.000			-14.651			-2.930
76301.000			-14.650			-2.930
76400.000			-14.650			-2.930
76500.000			-14.650			-2.930
76601.000			-14.650			-2.930
76700.000			-14.650			-2.930
76800.000			-14.649			-2.930
76902.000			-14.649			-2.930
77001.000			-14.648			-2.930
77100.000			-14.648			-2.930
77201.000			-14.648			-2.930
77300.000			-14.647			-2.929
77401.000			-14.647			-2.929
77500.000			-14.647			-2.929
77600.000			-14.647			-2.929
77702.000			-14.647			-2.929
77801.000			-14.646			-2.929
77901.000			-14.645			-2.929
78001.000			-14.645			-2.929
78100.000			-14.645			-2.929
78200.000			-14.645			-2.929
78301.000			-14.644			-2.929
78400.000			-14.643			-2.929
78500.000			-14.644			-2.929
78602.000			-14.643			-2.929
78701.000			-14.643			-2.929
78800.000			-14.643			-2.929
78901.000			-14.642			-2.928
79000.000			-14.642			-2.928
79100.000			-14.641			-2.928
79201.000			-14.641			-2.928
79300.000			-14.640			-2.928
79401.000			-14.639			-2.928
79502.000			-14.639			-2.928
79600.000			-14.639			-2.928
79700.000			-14.640			-2.928
79801.000			-14.639			-2.928
79900.000			-14.639			-2.928
80000.000			-14.638			-2.928
80101.000			-14.638			-2.928
80201.000			-14.637			-2.927
80301.000			-14.637			-2.927
80401.000			-14.637			-2.927
80500.000			-14.636			-2.927
80601.000			-14.637			-2.927
80700.000			-14.636			-2.927
80800.000			-14.635			-2.927
80901.000			-14.635			-2.927
81000.000			-14.635			-2.927
81101.000			-14.636			-2.927
81202.000			-14.634			-2.927
81300.000			-14.633			-2.927
81400.000			-14.633			-2.927
81501.000			-14.632			-2.926
81600.000			-14.633			-2.927
81700.000			-14.633			-2.927
81801.000			-14.631			-2.926
81901.000			-14.632			-2.926
82001.000			-14.632			-2.926
82101.000			-14.631			-2.926
82200.000			-14.631			-2.926
82300.000			-14.629			-2.926
82401.000			-14.628			-2.926
82500.000			-14.629			-2.926
82600.000			-14.630			-2.926
82702.000			-14.629			-2.926
82801.000			-14.629			-2.926
82900.000			-14.629			-2.926
83001.000			-14.628			-2.926
83100.000			-14.627			-2.925
83200.000			-14.627			-2.925
83301.000			-14.627			-2.925
83400.000			-14.627			-2.925
83501.000			-14.626			-2.925
83602.000			-14.625			-2.925
83701.000			-14.625			-2.925
83801.000			-14.626			-2.925
83900.000			-14.625			-2.925
84000.000			-14.624			-2.925
84101.000			-14.624			-2.925
84200.000			-14.625			-2.925
84300.000			-14.624			-2.925
84402.000			-14.623			-2.925
84501.000			-14.623			-2.925
84600.000			-14.624			-2.925
84701.000			-14.622			-2.924
84800.000			-14.621			-2.924
84900.000			-14.621			-2.924
85001.000			-14.621			-2.924
85100.000			-14.621			-2.924
85201.000			-14.621			-2.924
85302.000			-14.620			-2.924
85400.000			-14.619			-2.924
85500.000			-14.619			-2.924
85601.000			-14.619			-2.924
85700.000			-14.619			-2.924
85800.000			-14.619			-2.924
85901.000			-14.619			-2.924
86001.000			-14.618			-2.924
86101.000			-14.618			-2.924
86201.000			-14.618			-2.924
86300.000			-14.617			-2.923
86400.000			-14.617			-2.923
86501.000			-14.618			-2.924
86600.000			-14.616			-2.923
86700.000			-14.616			-2.923
86802.000			-14.616			-2.923
86901.000			-14.616			-2.923
87002.000			-14.616			-2.923
87100.000			-14.616			-2.923
87200.000			-14.615			-2.923
87301.000			-14.614			-2.923
87400.000			-14.614			-2.923
87500.000			-14.613			-2.923
87601.000			-14.614			-2.923
87701.000			-14.614			-2.923
87801.000			-14.613			-2.923
87901.000			-14.612			-2.922
88000.000			-14.613			-2.923
88100.000			-14.612			-2.922
88201.000			-14.612			-2.922
88300.000			-14.612			-2.922
88400.000			-14.611			-2.922
88502.000			-14.611			-2.922
88601.000			-14.610			-2.922
88700.000			-14.610			-2.922
88801.000			-14.609			-2.922
88900.000			-14.609			-2.922
89000.000			-14.609			-2.922
89101.000			-14.608			-2.922
89200.000			-14.608			-2.922
89300.000			-14.607			-2.921
89402.000			-14.607			-2.921
89501.000			-14.608			-2.922
89600.000			-14.606			-2.921
89701.000			-14.606			-2.921
89800.000			-14.606			-2.921
89900.000			-14.606			-2.921
90001.000			-14.606			-2.921
90100.000			-14.607			-2.921
90202.000			-14.606			-2.921
90301.000			-14.605			-2.921
90400.000			-14.604			-2.921
90501.000			-14.604			-2.921
90600.000			-14.605			-2.921
90700.000			-14.604			-2.921
90801.000			-14.604			-2.921
90900.000			-14.603			-2.921
91001.000			-14.604			-2.921
91102.000			-14.603			-2.921
91200.000			-14.602			-2.920
91300.000			-14.601			-2.920
91401.000			-14.600			-2.920
91500.000			-14.601			-2.920
91600.000			-14.602			-2.920
91701.000			-14.602			-2.920
91801.000			-14.602			-2.920
91901.000			-14.600			-2.920
92001.000			-14.600			-2.920
92100.000			-14.599			-2.920
92200.000			-14.599			-2.920
92301.000			-14.598			-2.920
92400.000			-14.598			-2.920
92500.000			-14.599			-2.920
92601.000			-14.599			-2.920
92701.000			-14.598			-2.920
92801.000			-14.598			-2.920
92901.000			-14.598			-2.920
93000.000			-14.597			-2.919
93100.000			-14.597			-2.919
93201.000			-14.596			-2.919
93300.000			-14.595			-2.919
93401.000			-14.595			-2.919
93501.000			-14.595			-2.919
93601.000			-14.595			-2.919
93702.000			-14.595			-2.919
93800.000			-14.595			-2.919
93900.000			-14.594			-2.919
94001.000			-14.594			-2.919
94100.000			-14.594			-2.919
94200.000			-14.593			-2.919
94301.000			-14.594			-2.919
94401.000			-14.593			-2.919
94501.000			-14.593			-2.919
94601.000			-14.592			-2.918
94700.000			-14.592			-2.918
94800.000			-14.592			-2.918
94901.000			-14.591			-2.918
95000.000			-14.591			-2.918
95100.000			-14.591			-2.918
95202.000			-14.591			-2.918
95301.000			-14.590			-2.918
95401.000			-14.590			-2.918
95501.000			-14.589			-2.918
95600.000			-14.590			-2.918
95700.000			-14.589			-2.918
95801.000			-14.588			-2.918
95900.000			-14.588			-2.918
96000.000			-14.589			-2.918
96102.000			-14.589			-2.918
96201.000			-14.587			-2.917
96300.000			-14.587			-2.917
96401.000			-14.587			-2.917
96500.000			-14.587			-2.917
96601.000			-14.587			-2.917
96700.000			-14.587			-2.917
96800.000			-14.586			-2.917
96901.000			-14.586			-2.917
97001.000			-14.585			-2.917
97101.000			-14.585			-2.917
97201.000			-14.586			-2.917
97300.000			-14.585			-2.917
97400.000			-14.586			-2.917
97501.000			-14.585			-2.917
97600.000			-14.583			-2.917
97700.000			-14.583			-2.917
97802.000			-14.583			-2.917
97901.000			-14.583			-2.917
98001.000			-14.582			-2.916
98101.000			-14.582			-2.916
98200.000			-14.581			-2.916
98300.000			-14.581			-2.916
98401.000			-14.581			-2.916
98500.000			-14.581			-2.916
98600.000			-14.581			-2.916
98702.000			-14.580			-2.916
98801.000			-14.581			-2.916
98900.000			-14.581			-2.916
99001.000			-14.580			-2.916
99100.000			-14.580			-2.916
99200.000			-14.579			-2.916
99301.000			-14.579			-2.916
99400.000			-14.579			-2.916
99501.000			-14.579			-2.916
99602.000			-14.577			-2.915
99701.000			-14.577			-2.915
99801.000			-14.577			-2.915
99900.000			-14.577			-2.915
100000.000			-14.578			-2.916
100101.000			-14.577			-2.915
100200.000			-14.576			-2.915
100300.000			-14.576			-2.915
100402.000			-14.576			-2.915
100501.000			-14.576			-2.915
100600.000			-14.575			-2.915
100701.000			-14.575			-2.915
100800.000			-14.574			-2.915
100900.000			-14.575			-2.915
101001.000			-14.575			-2.915
101100.000			-14.573			-2.915
101201.000			-14.573			-2.915
101302.000			-14.572			-2.914
101401.000			-14.572			-2.914
101500.000			-14.572			-2.914
101601.000			-14.572			-2.914
101700.000			-14.572			-2.914
101800.000			-14.572			-2.914
101901.000			-14.572			-2.914
102000.000			-14.571			-2.914
102101.000			-14.571			-2.914
102202.000			-14.571			-2.914
102300.000			-14.569			-2.914
102400.000			-14.569			-2.914
102501.000			-14.570			-2.914
102600.000			-14.569			-2.914
102700.000			-14.569			-2.914
102801.000			-14.569			-2.914
102901.000			-14.569			-2.914
103002.000			-14.569			-2.914
103101.000			-14.569			-2.914
103200.000			-14.569			-2.914
103301.000			-14.569			-2.914
103400.000			-14.568			-2.914
103500.000			-14.567			-2.913
103601.000			-14.567			-2.913
103700.000			-14.566			-2.913
103801.000			-14.566			-2.913
103902.000			-14.566			-2.913
104000.000			-14.566			-2.913
104100.000			-14.566			-2.913
104201.000			-14.565			-2.913
104300.000			-14.564			-2.913
104400.000			-14.564			-2.913
104501.000			-14.564			-2.913
104600.000			-14.564			-2.913
104701.000			-14.563			-2.913
104802.000			-14.563			-2.913
104900.000			-14.563			-2.913
105000.000			-14.562			-2.912
105101.000			-14.563			-2.913
105200.000			-14.563			-2.913
105300.000			-14.562			-2.912
105401.000			-14.561			-2.912
105501.000			-14.561			-2.912
105601.000			-14.561			-2.912
105701.000			-14.561			-2.912
105800.000			-14.561			-2.912
105900.000			-14.561			-2.912
106001.000			-14.560			-2.912
106100.000			-14.560			-2.912
106201.000			-14.560			-2.912
106301.000			-14.560			-2.912
106401.000			-14.559			-2.912
106502.000			-14.558			-2.912
106600.000			-14.559			-2.912
106700.000			-14.559			-2.912
106801.000			-14.559			-2.912
106900.000			-14.558			-2.912
107000.000			-14.558			-2.912
107101.000			-14.557			-2.911
107201.000			-14.558			-2.912
107301.000			-14.558			-2.912
107401.000			-14.557			-2.911
107500.000			-14.557			-2.911
107600.000			-14.556			-2.911
107701.000			-14.556			-2.911
107800.000			-14.555			-2.911
107900.000			-14.555			-2.911
108001.000			-14.555			-2.911
108101.000			-14.555			-2.911
108201.000			-14.555			-2.911
108301.000			-14.555			-2.911
108400.000			-14.554			-2.911
108500.000			-14.554			-2.911
108601.000			-14.553			-2.911
108700.000			-14.553			-2.911
108800.000			-14.554			-2.911
108902.000			-14.554			-2.911
109001.000			-14.553			-2.911
109101.000			-14.553			-2.911
109201.000			-14.552			-2.910
109300.000			-14.551			-2.910
109401.000			-14.551			-2.910
109500.000			-14.551			-2.910
109600.000			-14.550			-2.910
109701.000			-14.549			-2.910
109801.000			-14.551			-2.910
109901.000			-14.551			-2.910
110001.000			-14.550			-2.910
110100.000			-14.550			-2.910
110200.000			-14.550			-2.910
110301.000			-14.550			-2.910
110400.000			-14.550			-2.910
110500.000			-14.550			-2.910
110601.000			-14.548			-2.910
110701.000			-14.547			-2.909
110801.000			-14.548			-2.910
110901.000			-14.547			-2.909
111000.000			-14.547			-2.909
111100.000			-14.547			-2.909
111201.000			-14.547			-2.909
111300.000			-14.546			-2.909
111400.000			-14.546			-2.909
111502.000			-14.546			-2.909
111601.000			-14.545			-2.909
111700.000			-14.545			-2.909
111801.000			-14.545			-2.909
111900.000			-14.545			-2.909
112000.000			-14.545			-2.909
112101.000			-14.545			-2.909
112200.000			-14.545			-2.909
112301.000			-14.545			-2.909
112402.000			-14.544			-2.909
112501.000			-14.543			-2.909
112601.000			-14.543			-2.909
112700.000			-14.543			-2.909
112800.000			-14.543			-2.909
112901.000			-14.543			-2.909
113000.000			-14.542			-2.908
113100.000			-14.542			-2.908
113202.000			-14.542			-2.908
113301.000			-14.542			-2.908
113400.000			-14.540			-2.908
113501.000			-14.540			-2.908
113600.000			-14.540			-2.908
113700.000			-14.540			-2.908
113801.000			-14.539			-2.908
113900.000			-14.540			-2.908
114001.000			-14.540			-2.908
114102.000			-14.539			-2.908
114200.000			-14.539			-2.908
114300.000			-14.539			-2.908
114401.000			-14.539			-2.908
114500.000			-14.538			-2.908
114600.000			-14.538			-2.908
114701.000			-14.538			-2.908
114800.000			-14.537			-2.907
114901.000			-14.536			-2.907
115002.000			-14.537			-2.907
115100.000			-14.537			-2.907
115200.000			-14.536			-2.907
115301.000			-14.537			-2.907
115400.000			-14.537			-2.907
115500.000			-14.537			-2.907
115601.000			-14.536			-2.907
115701.000			-14.535			-2.907
115802.000			-14.535			-2.907
115901.000			-14.534			-2.907
116000.000			-14.536			-2.907
116101.000			-14.535			-2.907
116200.000			-14.534			-2.907
116300.000			-14.534			-2.907
116401.000			-14.534			-2.907
116500.000			-14.534			-2.907
116601.000			-14.535			-2.907
116702.000			-14.533			-2.907
116800.000			-14.533			-2.907
116900.000			-14.533			-2.907
117001.000			-14.532			-2.906
117100.000			-14.532			-2.906
117200.000			-14.532			-2.906
117301.000			-14.532			-2.906
117401.000			-14.531			-2.906
117501.000			-14.530			-2.906
117601.000			-14.531			-2.906
117700.000			-14.531			-2.906
117800.000			-14.530			-2.906
117901.000			-14.531			-2.906
118000.000			-14.530			-2.906
118100.000			-14.530			-2.906
118202.000			-14.531			-2.906
118301.000			-14.529			-2.906
118400.000			-14.528			-2.906
118501.000			-14.528			-2.906
118600.000			-14.528			-2.906
118700.000			-14.528			-2.906
118801.000			-14.528			-2.906
118900.000			-14.527			-2.905
119001.000			-14.527			-2.905
119101.000			-14.527			-2.905
119201.000			-14.527			-2.905
119301.000			-14.527			-2.905
119400.000			-14.527			-2.905
119500.000			-14.527			-2.905
119601.000			-14.526			-2.905
119700.000			-14.525			-2.905
119800.000			-14.526			-2.905
119901.000			-14.526			-2.905
120001.000			-14.526			-2.905
120101.000			-14.525			-2.905
120201.000			-14.525			-2.905
120300.000			-14.525			-2.905
120400.000			-14.524			-2.905
120501.000			-14.524			-2.905
120600.000			-14.524			-2.905
120700.000			-14.525			-2.905
120802.000			-14.524			-2.905
120901.000			-14.523			-2.905
121000.000			-14.523			-2.905
121101.000			-14.523			-2.905
121200.000			-14.523			-2.905
121300.000			-14.522			-2.904
121401.000			-14.522			-2.904
121500.000			-14.522			-2.904
121601.000			-14.522			-2.904
121702.000			-14.521			-2.904
121800.000			-14.521			-2.904
121900.000			-14.520			-2.904
122001.000			-14.520			-2.904
122100.000			-14.520			-2.904
122201.000			-14.521			-2.904
122300.000			-14.520			-2.904
122400.000			-14.519			-2.904
122502.000			-14.518			-2.904
122601.000			-14.518			-2.904
122700.000			-14.519			-2.904
122801.000			-14.518			-2.904
122900.000			-14.518			-2.904
123000.000			-14.518			-2.904
123101.000			-14.519			-2.904
123200.000			-14.518			-2.904
123301.000			-14.518			-2.904
123402.000			-14.517			-2.903
123500.000			-14.517			-2.903
123600.000			-14.516			-2.903
123701.000			-14.516			-2.903
123800.000			-14.517			-2.903
123900.000			-14.517			-2.903
124001.000			-14.516			-2.903
124101.000			-14.514			-2.903
124201.000			-14.515			-2.903
124301.000			-14.516			-2.903
124400.000			-14.516			-2.903
124500.000			-14.515			-2.903
124601.000			-14.515			-2.903
124700.000			-14.514			-2.903
124800.000			-14.515			-2.903
124901.000			-14.513			-2.903
125001.000			-14.513			-2.903
125101.000			-14.514			-2.903
125201.000			-14.513			-2.903
125300.000			-14.512			-2.902
125401.000			-14.512			-2.902
125500.000			-14.514			-2.903
125600.000			-14.513			-2.903
125701.000			-14.513			-2.903
125801.000			-14.513			-2.903
125901.000			-14.512			-2.902
126001.000			-14.511			-2.902
126100.000			-14.511			-2.902
126200.000			-14.511			-2.902
126301.000			-14.512			-2.902
126400.000			-14.511			-2.902
126500.000			-14.511			-2.902
126601.000			-14.510			-2.902
126701.000			-14.510			-2.902
126801.000			-14.510			-2.902
126901.000			-14.510			-2.902
127000.000			-14.510			-2.902
127100.000			-14.509			-2.902
127201.000			-14.509			-2.902
127300.000			-14.509			-2.902
127400.000			-14.508			-2.902
127502.000			-14.507			-2.901
127601.000			-14.507			-2.901
127700.000			-14.508			-2.902
127801.000			-14.508			-2.902
127900.000			-14.508			-2.902
128000.000			-14.508			-2.902
128101.000			-14.507			-2.901
128200.000			-14.505			-2.901
128300.000			-14.506			-2.901
128402.000			-14.506			-2.901
128501.000			-14.505			-2.901
128601.000			-14.505			-2.901
128700.000			-14.505			-2.901
128800.000			-14.505			-2.901
128901.000			-14.505			-2.901
129000.000			-14.505			-2.901
129100.000			-14.505			-2.901
129202.000			-14.504			-2.901
129301.000			-14.504			-2.901
129400.000			-14.504			-2.901
129501.000			-14.504			-2.901
129600.000			-14.504			-2.901
129700.000			-14.503			-2.901
129801.000			-14.504			-2.901
129900.000			-14.503			-2.901
130000.000			-14.503			-2.901
130102.000			-14.503			-2.901
130201.000			-14.502			-2.900
130300.000			-14.501			-2.900
130401.000			-14.501			-2.900
130500.000			-14.501			-2.900
130600.000			-14.502			-2.900
130701.000			-14.502			-2.900
130800.000			-14.503			-2.901
130901.000			-14.502			-2.900
131002.000			-14.501			-2.900
131100.000			-14.499			-2.900
131200.000			-14.499			-2.900
131301.000			-14.500			-2.900
131400.000			-14.499			-2.900
131500.000			-14.498			-2.900
131601.000			-14.499			-2.900
131700.000			-14.499			-2.900
131802.000			-14.500			-2.900
131901.000			-14.499			-2.900
132000.000			-14.498			-2.900
132101.000			-14.498			-2.900
132200.000			-14.498			-2.900
132300.000			-14.499			-2.900
132401.000			-14.499			-2.900
132500.000			-14.498			-2.900
132600.000			-14.498			-2.900
132702.000			-14.497			-2.899
132801.000			-14.497			-2.899
132901.000			-14.496			-2.899
133001.000			-14.496			-2.899
133100.000			-14.496			-2.899
133200.000			-14.496			-2.899
133301.000			-14.496			-2.899
133400.000			-14.495			-2.899
133500.000			-14.496			-2.899
133601.000			-14.495			-2.899
133701.000			-14.495			-2.899
133801.000			-14.495			-2.899
133901.000			-14.495			-2.899
134000.000			-14.495			-2.899
134100.000			-14.495			-2.899
134201.000			-14.494			-2.899
134300.000			-14.494			-2.899
134400.000			-14.494			-2.899
134501.000			-14.494			-2.899
134601.000			-14.493			-2.899
134701.000			-14.493			-2.899
134802.000			-14.493			-2.899
134900.000			-14.492			-2.898
135001.000			-14.492			-2.898
135100.000			-14.492			-2.898
135200.000			-14.493			-2.899
135301.000			-14.492			-2.898
135400.000			-14.491			-2.898
135500.000			-14.491			-2.898
135602.000			-14.491			-2.898
135701.000			-14.492			-2.898
135800.000			-14.491			-2.898
135901.000			-14.492			-2.898
136000.000			-14.491			-2.898
136100.000			-14.490			-2.898
136201.000			-14.490			-2.898
136300.000			-14.490			-2.898
136400.000			-14.491			-2.898
136502.000			-14.490			-2.898
136601.000			-14.490			-2.898
136700.000			-14.490			-2.898
136801.000			-14.490			-2.898
136900.000			-14.489			-2.898
137000.000			-14.489			-2.898
137101.000			-14.489			-2.898
137200.000			-14.489			-2.898
137300.000			-14.489			-2.898
137401.000			-14.488			-2.898
137501.000			-14.487			-2.897
137601.000			-14.487			-2.897
137701.000			-14.487			-2.897
137800.000			-14.487			-2.897
137900.000			-14.487			-2.897
138001.000			-14.487			-2.897
138100.000			-14.487			-2.897
138201.000			-14.487			-2.897
138300.000			-14.487			-2.897
138401.000			-14.486			-2.897
138502.000			-14.486			-2.897
138601.000			-14.485			-2.897
138700.000			-14.486			-2.897
138801.000			-14.486			-2.897
138900.000			-14.485			-2.897
139000.000			-14.485			-2.897
139101.000			-14.485			-2.897
139200.000			-14.484			-2.897
139300.000			-14.484			-2.897
139402.000			-14.484			-2.897
139501.000			-14.483			-2.897
139601.000			-14.483			-2.897
139701.000			-14.484			-2.897
139800.000			-14.484			-2.897
139900.000			-14.484			-2.897
140001.000			-14.484			-2.897
140100.000			-14.483			-2.897
140200.000			-14.482			-2.896
140301.000			-14.482			-2.896
140401.000			-14.481			-2.896
140501.000			-14.482			-2.896
140601.000			-14.482			-2.896
140700.000			-14.483			-2.897
140800.000			-14.483			-2.897
140901.000			-14.481			-2.896
141000.000			-14.482			-2.896
141100.000			-14.481			-2.896
141201.000			-14.480			-2.896
141301.000			-14.481			-2.896
141402.000			-14.480			-2.896
141500.000			-14.480			-2.896
141600.000			-14.480			-2.896
141701.000			-14.478			-2.896
141800.000			-14.479			-2.896
141900.000			-14.479			-2.896
142001.000			-14.478			-2.896
142100.000			-14.478			-2.896
142201.000			-14.477			-2.895
142302.000			-14.477			-2.895
142401.000			-14.478			-2.896
142500.000			-14.479			-2.896
142601.000			-14.478			-2.896
142700.000			-14.477			-2.895
142800.000			-14.477			-2.895
142901.000			-14.477			-2.895
143000.000			-14.477			-2.895
143100.000			-14.476			-2.895
143202.000			-14.477			-2.895
143301.000			-14.476			-2.895
143400.000			-14.476			-2.895
143501.000			-14.476			-2.895
143600.000			-14.476			-2.895
143700.000			-14.475			-2.895
143801.000			-14.475			-2.895
143900.000			-14.475			-2.895
144000.000			-14.474			-2.895
144102.000			-14.474			-2.895
144201.000			-14.474			-2.895
144300.000			-14.475			-2.895
144401.000			-14.475			-2.895
144500.000			-14.474			-2.895
144601.000			-14.473			-2.895
144700.000			-14.473			-2.895
144800.000			-14.473			-2.895
144901.000			-14.472			-2.894
145001.000			-14.471			-2.894
145101.000			-14.471			-2.894
145202.000			-14.472			-2.894
145300.000			-14.473			-2.895
145400.000			-14.473			-2.895
145501.000			-14.472			-2.894
145600.000			-14.471			-2.894
145700.000			-14.471			-2.894
145801.000			-14.471			-2.894
145900.000			-14.471			-2.894
146001.000			-14.470			-2.894
146102.000			-14.471			-2.894
146200.000			-14.471			-2.894
146300.000			-14.469			-2.894
146401.000			-14.469			-2.894
146500.000			-14.469			-2.894
146600.000			-14.470			-2.894
146701.000			-14.470			-2.894
146800.000			-14.469			-2.894
146900.000			-14.469			-2.894
147002.000			-14.468			-2.894
147101.000			-14.468			-2.894
147200.000			-14.469			-2.894
147301.000			-14.469			-2.894
147400.000			-14.469			-2.894
147500.000			-14.468			-2.894
147601.000			-14.468			-2.894
147700.000			-14.466			-2.893
147801.000			-14.467			-2.893
147901.000			-14.468			-2.894
148001.000			-14.467			-2.893
148102.000			-14.466			-2.893
148200.000			-14.467			-2.893
148300.000			-14.465			-2.893
148401.000			-14.466			-2.893
148500.000			-14.465			-2.893
148600.000			-14.465			-2.893
148701.000			-14.466			-2.893
148800.000			-14.466			-2.893
148901.000			-14.466			-2.893
149002.000			-14.464			-2.893
149101.000			-14.465			-2.893
149200.000			-14.464			-2.893
149301.000			-14.465			-2.893
149400.000			-14.465			-2.893
149500.000			-14.465			-2.893
149601.000			-14.464			-2.893
149700.000			-14.464			-2.893
149800.000			-14.463			-2.893
149902.000			-14.464			-2.893
150001.000			-14.464			-2.893
150100.000			-14.462			-2.892
150201.000			-14.462			-2.892
150300.000			-14.462			-2.892
150400.000			-14.462			-2.892
150501.000			-14.462			-2.892
150600.000			-14.461			-2.892
150700.000			-14.461			-2.892
150802.000			-14.461			-2.892
150901.000			-14.461			-2.892
151001.000			-14.460			-2.892
151100.000			-14.461			-2.892
151200.000			-14.460			-2.892
151301.000			-14.461			-2.892
151400.000			-14.460			-2.892
151500.000			-14.460			-2.892
151601.000			-14.460			-2.892
151701.000			-14.459			-2.892
151801.000			-14.460			-2.892
151902.000			-14.460			-2.892
152000.000			-14.458			-2.892
152100.000			-14.459			-2.892
152201.000			-14.459			-2.892
152300.000			-14.458			-2.892
152400.000			-14.458			-2.892
152501.000			-14.457			-2.891
152600.000			-14.456			-2.891
152701.000			-14.458			-2.892
152802.000			-14.457			-2.891
152900.000			-14.457			-2.891
153000.000			-14.457			-2.891
153101.000			-14.457			-2.891
153200.000			-14.456			-2.891
153300.000			-14.455			-2.891
153401.000			-14.456			-2.891
153500.000			-14.456			-2.891
153601.000			-14.456			-2.891
153702.000			-14.456			-2.891
153801.000			-14.454			-2.891
153900.000			-14.455			-2.891
154001.000			-14.455			-2.891
154100.000			-14.454			-2.891
154201.000			-14.455			-2.891
154300.000			-14.455			-2.891
154400.000			-14.455			-2.891
154501.000			-14.455			-2.891
154601.000			-14.453			-2.891
154701.000			-14.454			-2.891
154801.000			-14.453			-2.891
154900.000			-14.454			-2.891
155000.000			-14.454			-2.891
155101.000			-14.453			-2.891
155200.000			-14.453			-2.891
155300.000			-14.453			-2.891
155401.000			-14.452			-2.890
155501.000			-14.451			-2.890
155601.000			-14.452			-2.890
155701.000			-14.451			-2.890
155800.000			-14.451			-2.890
155900.000			-14.452			-2.890
156001.000			-14.452			-2.890
156100.000			-14.451			-2.890
156200.000			-14.451			-2.890
156301.000			-14.450			-2.890
156401.000			-14.449			-2.890
156501.000			-14.450			-2.890
156601.000			-14.450			-2.890
156700.000			-14.450			-2.890
156800.000			-14.450			-2.890
156901.000			-14.450			-2.890
157000.000			-14.450			-2.890
157100.000			-14.450			-2.890
157201.000			-14.449			-2.890
157301.000			-14.448			-2.890
157402.000			-14.448			-2.890
157501.000			-14.448			-2.890
157600.000			-14.449			-2.890
157701.000			-14.448			-2.890
157800.000			-14.448			-2.890
157900.000			-14.447			-2.889
158001.000			-14.447			-2.889
158100.000			-14.447			-2.889
158200.000			-14.448			-2.890
158302.000			-14.447			-2.889
158401.000			-14.447			-2.889
158501.000			-14.447			-2.889
158601.000			-14.446			-2.889
158700.000			-14.446			-2.889
158800.000			-14.446			-2.889
158901.000			-14.446			-2.889
159000.000			-14.446			-2.889
159100.000			-14.446			-2.889
159201.000			-14.445			-2.889
159301.000			-14.445			-2.889
159401.000			-14.445			-2.889
159501.000			-14.444			-2.889
159600.000			-14.444			-2.889
159700.000			-14.443			-2.889
159801.000			-14.443			-2.889
159900.000			-14.443			-2.889
160000.000			-14.444			-2.889
160101.000			-14.443			-2.889
160201.000			-14.443			-2.889
160301.000			-14.442			-2.888
160402.000			-14.442			-2.888
160500.000			-14.443			-2.889
160601.000			-14.442			-2.888
160700.000			-14.442			-2.888
160800.000			-14.441			-2.888
160901.000			-14.441			-2.888
161000.000			-14.442			-2.888
161101.000			-14.441			-2.888
161202.000			-14.441			-2.888
161301.000			-14.441			-2.888
161400.000			-14.441			-2.888
161501.000			-14.441			-2.888
161600.000			-14.440			-2.888
161700.000			-14.440			-2.888
161801.000			-14.439			-2.888
161900.000			-14.440			-2.888
162000.000			-14.440			-2.888
162102.000			-14.440			-2.888
162201.000			-14.440			-2.888
162300.000			-14.440			-2.888
162401.000			-14.439			-2.888
162500.000			-14.439			-2.888
162600.000			-14.438			-2.888
162701.000			-14.438			-2.888
162800.000			-14.438			-2.888
162900.000			-14.439			-2.888
163002.000			-14.439			-2.888
163101.000			-14.437			-2.887
163200.000			-14.437			-2.887
163301.000			-14.437			-2.887
163400.000			-14.437			-2.887
163500.000			-14.438			-2.888
163601.000			-14.437			-2.887
163700.000			-14.437			-2.887
163801.000			-14.437			-2.887
163901.000			-14.436			-2.887
164001.000			-14.436			-2.887
164102.000			-14.437			-2.887
164200.000			-14.437			-2.887
164300.000			-14.437			-2.887
164401.000			-14.435			-2.887
164500.000			-14.434			-2.887
164600.000			-14.435			-2.887
164701.000			-14.435			-2.887
164800.000			-14.435			-2.887
164901.000			-14.435			-2.887
165002.000			-14.435			-2.887
165100.000			-14.433			-2.887
165200.000			-14.435			-2.887
165301.000			-14.434			-2.887
165400.000			-14.433			-2.887
165500.000			-14.434			-2.887
165601.000			-14.433			-2.887
165700.000			-14.432			-2.886
165801.000			-14.432			-2.886
165902.000			-14.433			-2.887
166000.000			-14.432			-2.886
166100.000			-14.432			-2.886
166201.000			-14.433			-2.887
166300.000			-14.432			-2.886
166400.000			-14.432			-2.886
166501.000			-14.432			-2.886
166600.000			-14.432			-2.886
166701.000			-14.431			-2.886
166802.000			-14.431			-2.886
166901.000			-14.431			-2.886
167001.000			-14.431			-2.886
167100.000			-14.430			-2.886
167200.000			-14.430			-2.886
167301.000			-14.429			-2.886
167400.000			-14.430			-2.886
167500.000			-14.429			-2.886
167601.000			-14.429			-2.886
167701.000			-14.429			-2.886
167801.000			-14.429			-2.886
167901.000			-14.429			-2.886
168000.000			-14.429			-2.886
168100.000			-14.428			-2.886
168201.000			-14.429			-2.886
168300.000			-14.428			-2.886
168400.000			-14.427			-2.885
168501.000			-14.427			-2.885
168601.000			-14.428			-2.886
168701.000			-14.427			-2.885
168802.000			-14.428			-2.886
168900.000			-14.427			-2.885
169000.000			-14.427			-2.885
169101.000			-14.427			-2.885
169200.000			-14.427			-2.885
169300.000			-14.426			-2.885
169401.000			-14.426			-2.885
169500.000			-14.426			-2.885
169601.000			-14.426			-2.885
169702.000			-14.426			-2.885
169801.000			-14.425			-2.885
169900.000			-14.425			-2.885
170001.000			-14.425			-2.885
170100.000			-14.425			-2.885
170201.000			-14.425			-2.885
170300.000			-14.424			-2.885
170400.000			-14.425			-2.885
170502.000			-14.424			-2.885
170601.000			-14.424			-2.885
170701.000			-14.424			-2.885
170801.000			-14.425			-2.885
170900.000			-14.424			-2.885
171000.000			-14.424			-2.885
171101.000			-14.423			-2.885
171200.000			-14.423			-2.885
171300.000			-14.424			-2.885
171402.000			-14.423			-2.885
171501.000			-14.422			-2.884
171601.000			-14.422			-2.884
171701.000			-14.422			-2.884
171800.000			-14.422			-2.884
171900.000			-14.421			-2.884
172001.000			-14.421			-2.884
172100.000			-14.422			-2.884
172200.000			-14.422			-2.884
172301.000			-14.421			-2.884
172401.000			-14.421			-2.884
172501.000			-14.420			-2.884
172601.000			-14.421			-2.884
172700.000			-14.421			-2.884
172800.000			-14.420			-2.884
172901.000			-14.420			-2.884
173000.000			-14.421			-2.884
173100.000			-14.420			-2.884
173201.000			-14.421			-2.884
173301.000			-14.420			-2.884
173402.000			-14.420			-2.884
173501.000			-14.421			-2.884
173600.000			-14.419			-2.884
173701.000			-14.419			-2.884
173800.000			-14.419			-2.884
173900.000			-14.419			-2.884
174001.000			-14.419			-2.884
174100.000			-14.419			-2.884
174201.000			-14.418			-2.884
174302.000			-14.418			-2.884
174401.000			-14.419			-2.884
174500.000			-14.417			-2.883
174601.000			-14.417			-2.883
174700.000			-14.417			-2.883
174800.000			-14.416			-2.883
174901.000			-14.417			-2.883
175000.000			-14.418			-2.884
175100.000			-14.417			-2.883
175202.000			-14.417			-2.883
175301.000			-14.416			-2.883
175400.000			-14.415			-2.883
175501.000			-14.416			-2.883
175600.000			-14.416			-2.883
175700.000			-14.416			-2.883
175801.000			-14.416			-2.883
175900.000			-14.417			-2.883
176000.000			-14.415			-2.883
176102.000			-14.415			-2.883
176201.000			-14.414			-2.883
176301.000			-14.413			-2.883
176401.000			-14.413			-2.883
176500.000			-14.414			-2.883
176601.000			-14.414			-2.883
176700.000			-14.414			-2.883
176800.000			-14.414			-2.883
176901.000			-14.413			-2.883
177000.000			-14.413			-2.883
177101.000			-14.413			-2.883
177202.000			-14.413			-2.883
177300.000			-14.414			-2.883
177400.000			-14.414			-2.883
177501.000			-14.413			-2.883
177600.000			-14.413			-2.883
177700.000			-14.411			-2.882
177801.000			-14.412			-2.882
177900.000			-14.412			-2.882
178001.000			-14.412			-2.882
178102.000			-14.411			-2.882
178200.000			-14.410			-2.882
178300.000			-14.411			-2.882
178401.000			-14.412			-2.882
178500.000			-14.412			-2.882
178600.000			-14.411			-2.882
178701.000			-14.411			-2.882
178800.000			-14.411			-2.882
178901.000			-14.411			-2.882
179002.000			-14.411			-2.882
179101.000			-14.411			-2.882
179200.000			-14.411			-2.882
179301.000			-14.411			-2.882
179400.000			-14.410			-2.882
179500.000			-14.410			-2.882
179601.000			-14.409			-2.882
179700.000			-14.409			-2.882
179801.000			-14.408			-2.882
179901.000			-14.410			-2.882
180001.000			-14.410			-2.882
180101.000			-14.409			-2.882
180200.000			-14.409			-2.882
180300.000			-14.409			-2.882
180401.000			-14.409			-2.882
180500.000			-14.408			-2.882
180600.000			-14.408			-2.882
180701.000			-14.407			-2.881
180801.000			-14.407			-2.881
180901.000			-14.407			-2.881
181001.000			-14.407			-2.881
181100.000			-14.408			-2.882
181200.000			-14.407			-2.881
181301.000			-14.406			-2.881
181400.000			-14.405			-2.881
181500.000			-14.406			-2.881
181601.000			-14.407			-2.881
181701.000			-14.408			-2.882
181801.000			-14.407			-2.881
181902.000			-14.406			-2.881
182000.000			-14.406			-2.881
182100.000			-14.407			-2.881
182201.000			-14.405			-2.881
182300.000			-14.403			-2.881
182400.000			-14.401			-2.880
182501.000			-14.401			-2.880
182600.000			-14.401			-2.880
182701.000			-14.401			-2.880
182802.000			-14.401			-2.880
182900.000			-14.400			-2.880
183001.000			-14.400			-2.880
183100.000			-14.399			-2.880
183200.000			-14.399			-2.880
183301.000			-14.399			-2.880
183400.000			-14.398			-2.880
183500.000			-14.393			-2.879
183602.000			-14.390			-2.878
183701.000			-14.390			-2.878
183801.000			-14.392			-2.878
183901.000			-14.396			-2.879
184000.000			-14.399			-2.880
184100.000			-14.399			-2.880
184201.000			-14.397			-2.879
184300.000			-14.392			-2.878
184400.000			-14.392			-2.878
184501.000			-14.391			-2.878
184601.000			-14.391			-2.878
184701.000			-14.391			-2.878
184802.000			-14.390			-2.878
184900.000			-14.389			-2.878
185000.000			-14.388			-2.878
185101.000			-14.389			-2.878
185200.000			-14.389			-2.878
185300.000			-14.388			-2.878
185401.000			-14.387			-2.877
185500.000			-14.385			-2.877
185601.000			-14.385			-2.877
185702.000			-14.384			-2.877
185801.000			-14.384			-2.877
185900.000			-14.386			-2.877
186001.000			-14.386			-2.877
186100.000			-14.387			-2.877
186201.000			-14.386			-2.877
186300.000			-14.386			-2.877
186400.000			-14.385			-2.877
186501.000			-14.382			-2.876
186601.000			-14.383			-2.877
186701.000			-14.381			-2.876
186801.000			-14.382			-2.876
186900.000			-14.381			-2.876
187000.000			-14.381			-2.876
187101.000			-14.381			-2.876
187200.000			-14.378			-2.876
187300.000			-14.379			-2.876
187401.000			-14.379			-2.876
187501.000			-14.379			-2.876
187601.000			-14.380			-2.876
187702.000			-14.381			-2.876
187800.000			-14.380			-2.876
187900.000			-14.381			-2.876
188001.000			-14.382			-2.876
188100.000			-14.383			-2.877
188200.000			-14.383			-2.877
188301.000			-14.381			-2.876
188400.000			-14.381			-2.876
188501.000			-14.380			-2.876
188602.000			-14.379			-2.876
188701.000			-14.377			-2.875
188800.000			-14.376			-2.875
188901.000			-14.376			-2.875
189000.000			-14.376			-2.875
189100.000			-14.377			-2.875
189201.000			-14.378			-2.876
189300.000			-14.380			-2.876
189401.000			-14.376			-2.875
189501.000			-14.374			-2.875
189601.000			-14.376			-2.875
189702.000			-14.376			-2.875
189800.000			-14.376			-2.875
189900.000			-14.376			-2.875
190001.000			-14.376			-2.875
190100.000			-14.374			-2.875
190200.000			-14.374			-2.875
190301.000			-14.374			-2.875
190401.000			-14.375			-2.875
190501.000			-14.376			-2.875
190602.000			-14.376			-2.875
190700.000			-14.376			-2.875
190800.000			-14.375			-2.875
190901.000			-14.374			-2.875
191000.000			-14.373			-2.875
191100.000			-14.371			-2.874
191201.000			-14.371			-2.874
191300.000			-14.371			-2.874
191401.000			-14.371			-2.874
191502.000			-14.371			-2.874
191601.000			-14.372			-2.874
191700.000			-14.373			-2.875
191801.000			-14.375			-2.875
191900.000			-14.375			-2.875
192000.000			-14.376			-2.875
192101.000			-14.375			-2.875
192200.000			-14.375			-2.875
192300.000			-14.375			-2.875
192402.000			-14.373			-2.875
192501.000			-14.373			-2.875
192601.000			-14.372			-2.874
192700.000			-14.372			-2.874
192800.000			-14.371			-2.874
192901.000			-14.370			-2.874
193000.000			-14.372			-2.874
193100.000			-14.374			-2.875
193201.000			-14.373			-2.875
193301.000			-14.373			-2.875
193401.000			-14.373			-2.875
193501.000			-14.373			-2.875
193600.000			-14.373			-2.875
193700.000			-14.373			-2.875
193801.000			-14.372			-2.874
193900.000			-14.373			-2.875
194000.000			-14.373			-2.875
194101.000			-14.372			-2.874
194201.000			-14.371			-2.874
194301.000			-14.371			-2.874
194402.000			-14.372			-2.874
194500.000			-14.374			-2.875
194600.000			-14.373			-2.875
194701.000			-14.373			-2.875
194800.000			-14.372			-2.874
194900.000			-14.371			-2.874
195001.000			-14.370			-2.874
195100.000			-14.371			-2.874
195201.000			-14.370			-2.874
195302.000			-14.370			-2.874
195401.000			-14.370			-2.874
195500.000			-14.370			-2.874
195601.000			-14.370			-2.874
195700.000			-14.370			-2.874
195801.000			-14.369			-2.874
195900.000			-14.364			-2.873
196000.000			-14.368			-2.874
196101.000			-14.369			-2.874
196201.000			-14.369			-2.874
196301.000			-14.369			-2.874
196401.000			-14.369			-2.874
196500.000			-14.368			-2.874
196600.000			-14.368			-2.874
196701.000			-14.368			-2.874
196800.000			-14.369			-2.874
196900.000			-14.368			-2.874
197001.000			-14.368			-2.874
197100.000			-14.367			-2.873
197201.000			-14.368			-2.874
197302.000			-14.368			-2.874
197401.000			-14.367			-2.873
197500.000			-14.368			-2.874
197601.000			-14.367			-2.873
197700.000			-14.367			-2.873
197800.000			-14.367			-2.873
197901.000			-14.367			-2.873
198000.000			-14.367			-2.873
198100.000			-14.367			-2.873
198202.000			-14.366			-2.873
198301.000			-14.365			-2.873
198400.000			-14.365			-2.873
198501.000			-14.366			-2.873
198600.000			-14.366			-2.873
198700.000			-14.365			-2.873
198801.000			-14.365			-2.873
198900.000			-14.365			-2.873
199001.000			-14.364			-2.873
199101.000			-14.364			-2.873
199201.000			-14.365			-2.873
199302.000			-14.366			-2.873
199400.000			-14.365			-2.873
199500.000			-14.364			-2.873
199601.000			-14.364			-2.873
199700.000			-14.363			-2.873
199800.000			-14.364			-2.873
199901.000			-14.363			-2.873
200000.000			-14.364			-2.873
200101.000			-14.364			-2.873
200202.000			-14.363			-2.873
200301.000			-14.363			-2.873
200400.000			-14.362			-2.872
200501.000			-14.362			-2.872
200600.000			-14.363			-2.873
200700.000			-14.364			-2.873
200801.000			-14.363			-2.873
200900.000			-14.362			-2.872
201001.000			-14.363			-2.873
201102.000			-14.363			-2.873
201201.000			-14.363			-2.873
201300.000			-14.363			-2.873
201401.000			-14.363			-2.873
201500.000			-14.363			-2.873
201600.000			-14.362			-2.872
201701.000			-14.362			-2.872
201800.000			-14.362			-2.872
201901.000			-14.362			-2.872
202002.000			-14.362			-2.872
202101.000			-14.361			-2.872
202201.000			-14.361			-2.872
202300.000			-14.362			-2.872
202400.000			-14.362			-2.872
202501.000			-14.362			-2.872
202600.000			-14.362			-2.872
202700.000			-14.361			-2.872
202802.000			-14.361			-2.872
202901.000			-14.360			-2.872
203001.000			-14.359			-2.872
203101.000			-14.359			-2.872
203200.000			-14.360			-2.872
203300.000			-14.361			-2.872
203401.000			-14.359			-2.872
203500.000			-14.359			-2.872
203600.000			-14.359			-2.872
203702.000			-14.360			-2.872
203801.000			-14.360			-2.872
203901.000			-14.359			-2.872
204001.000			-14.358			-2.872
204100.000			-14.359			-2.872
204200.000			-14.360			-2.872
204301.000			-14.360			-2.872
204400.000			-14.360			-2.872
204500.000			-14.359			-2.872
204601.000			-14.359			-2.872
204701.000			-14.359			-2.872
204801.000			-14.359			-2.872
204901.000			-14.359			-2.872
205000.000			-14.359			-2.872
205100.000			-14.358			-2.872
205201.000			-14.358			-2.872
205300.000			-14.358			-2.872
205401.000			-14.358			-2.872
205500.000			-14.358			-2.872
205601.000			-14.357			-2.871
205702.000			-14.357			-2.871
205801.000			-14.358			-2.872
205900.000			-14.358			-2.872
206001.000			-14.356			-2.871
206100.000			-14.357			-2.871
206200.000			-14.357			-2.871
206301.000			-14.356			-2.871
206400.000			-14.356			-2.871
206500.000			-14.357			-2.871
206602.000			-14.356			-2.871
206701.000			-14.355			-2.871
206800.000			-14.355			-2.871
206901.000			-14.355			-2.871
207000.000			-14.356			-2.871
207100.000			-14.356			-2.871
207201.000			-14.356			-2.871
207300.000			-14.356			-2.871
207400.000			-14.355			-2.871
207502.000			-14.355			-2.871
207601.000			-14.354			-2.871
207700.000			-14.355			-2.871
207801.000			-14.355			-2.871
207900.000			-14.355			-2.871
208000.000			-14.355			-2.871
208101.000			-14.354			-2.871
208200.000			-14.354			-2.871
208300.000			-14.354			-2.871
208402.000			-14.354			-2.871
208501.000			-14.354			-2.871
208601.000			-14.353			-2.871
208700.000			-14.354			-2.871
208800.000			-14.354			-2.871
208901.000			-14.353			-2.871
209000.000			-14.352			-2.870
209100.000			-14.353			-2.871
209201.000			-14.353			-2.871
209301.000			-14.353			-2.871
209401.000			-14.352			-2.870
209502.000			-14.353			-2.871
209600.000			-14.353			-2.871
209700.000			-14.352			-2.870
209801.000			-14.352			-2.870
209900.000			-14.351			-2.870
210000.000			-14.352			-2.870
210101.000			-14.352			-2.870
210201.000			-14.352			-2.870
210301.000			-14.351			-2.870
210402.000			-14.351			-2.870
210500.000			-14.351			-2.870
210600.000			-14.351			-2.870
210701.000			-14.351			-2.870
210800.000			-14.351			-2.870
210900.000			-14.351			-2.870
211001.000			-14.351			-2.870
211101.000			-14.351			-2.870
211201.000			-14.350			-2.870
211301.000			-14.350			-2.870
211400.000			-14.350			-2.870
211500.000			-14.350			-2.870
211601.000			-14.351			-2.870
211700.000			-14.350			-2.870
211801.000			-14.349			-2.870
211900.000			-14.350			-2.870
212001.000			-14.349			-2.870
212102.000			-14.350			-2.870
212201.000			-14.349			-2.870
212300.000			-14.349			-2.870
212401.000			-14.349			-2.870
212500.000			-14.349			-2.870
212600.000			-14.349			-2.870
212701.000			-14.350			-2.870
212800.000			-14.349			-2.870
212901.000			-14.348			-2.870
213002.000			-14.348			-2.870
213101.000			-14.348			-2.870
213200.000			-14.348			-2.870
213301.000			-14.347			-2.869
213400.000			-14.346			-2.869
213500.000			-14.347			-2.869
213601.000			-14.348			-2.870
213700.000			-14.348			-2.870
213800.000			-14.348			-2.870
213902.000			-14.347			-2.869
214001.000			-14.348			-2.870
214100.000			-14.347			-2.869
214201.000			-14.347			-2.869
214300.000			-14.346			-2.869
214400.000			-14.347			-2.869
214501.000			-14.348			-2.870
214600.000			-14.346			-2.869
214700.000			-14.347			-2.869
214802.000			-14.346			-2.869
214901.000			-14.346			-2.869
215001.000			-14.346			-2.869
215100.000			-14.347			-2.869
215200.000			-14.346			-2.869
215301.000			-14.346			-2.869
215400.000			-14.345			-2.869
215500.000			-14.345			-2.869
215601.000			-14.345			-2.869
215701.000			-14.346			-2.869
215801.000			-14.345			-2.869
215901.000			-14.344			-2.869
216000.000			-14.345			-2.869
216100.000			-14.345			-2.869
216201.000			-14.345			-2.869
216300.000			-14.344			-2.869
216400.000			-14.343			-2.869
216501.000			-14.344			-2.869
216601.000			-14.345			-2.869
216701.000			-14.344			-2.869
216802.000			-14.345			-2.869
216900.000			-14.344			-2.869
217000.000			-14.344			-2.869
217101.000			-14.345			-2.869
217200.000			-14.345			-2.869
217300.000			-14.343			-2.869
217401.000			-14.343			-2.869
217501.000			-14.343			-2.869
217601.000			-14.342			-2.868
217702.000			-14.343			-2.869
217800.000			-14.343			-2.869
217900.000			-14.343			-2.869
218001.000			-14.342			-2.868
218100.000			-14.342			-2.868
218201.000			-14.342			-2.868
218300.000			-14.342			-2.868
218400.000			-14.342			-2.868
218502.000			-14.343			-2.869
218601.000			-14.343			-2.869
218700.000			-14.343			-2.869
218801.000			-14.342			-2.868
218900.000			-14.342			-2.868
219000.000			-14.341			-2.868
219101.000			-14.341			-2.868
219200.000			-14.341			-2.868
219300.000			-14.341			-2.868
219402.000			-14.341			-2.868
219501.000			-14.340			-2.868
219601.000			-14.340			-2.868
219701.000			-14.340			-2.868
219800.000			-14.340			-2.868
219900.000			-14.339			-2.868
220001.000			-14.339			-2.868
220100.000			-14.340			-2.868
220200.000			-14.340			-2.868
220302.000			-14.340			-2.868
220401.000			-14.340			-2.868
220501.000			-14.339			-2.868
220601.000			-14.338			-2.868
220700.000			-14.340			-2.868
220800.000			-14.338			-2.868
220901.000			-14.338			-2.868
221000.000			-14.339			-2.868
221100.000			-14.339			-2.868
221201.000			-14.339			-2.868
221301.000			-14.339			-2.868
221402.000			-14.338			-2.868
221500.000			-14.338			-2.868
221600.000			-14.338			-2.868
221701.000			-14.338			-2.868
221800.000			-14.338			-2.868
221900.000			-14.338			-2.868
222001.000			-14.338			-2.868
222100.000			-14.338			-2.868
222201.000			-14.338			-2.868
222302.000			-14.337			-2.867
222400.000			-14.338			-2.868
222500.000			-14.338			-2.868
222601.000			-14.337			-2.867
222700.000			-14.337			-2.867
222800.000			-14.337			-2.867
222901.000			-14.338			-2.868
223000.000			-14.337			-2.867
223101.000			-14.337			-2.867
223202.000			-14.337			-2.867
223301.000			-14.336			-2.867
223400.000			-14.337			-2.867
223501.000			-14.337			-2.867
223600.000			-14.338			-2.868
223700.000			-14.338			-2.868
223801.000			-14.337			-2.867
223900.000			-14.336			-2.867
224000.000			-14.334			-2.867
224102.000			-14.334			-2.867
224201.000			-14.335			-2.867
224300.000			-14.337			-2.867
224401.000			-14.335			-2.867
224500.000			-14.335			-2.867
224601.000			-14.335			-2.867
224700.000			-14.335			-2.867
224800.000			-14.335			-2.867
224901.000			-14.334			-2.867
225001.000			-14.335			-2.867
225101.000			-14.335			-2.867
225201.000			-14.335			-2.867
225300.000			-14.335			-2.867
225400.000			-14.334			-2.867
225501.000			-14.335			-2.867
225600.000			-14.335			-2.867
225700.000			-14.333			-2.867
225801.000			-14.334			-2.867
225901.000			-14.333			-2.867
226001.000			-14.334			-2.867
226101.000			-14.333			-2.867
226200.000			-14.333			-2.867
226300.000			-14.333			-2.867
226401.000			-14.333			-2.867
226500.000			-14.333			-2.867
226600.000			-14.334			-2.867
226701.000			-14.334			-2.867
226801.000			-14.333			-2.867
226901.000			-14.333			-2.867
227002.000			-14.333			-2.867
227100.000			-14.333			-2.867
227200.000			-14.333			-2.867
227301.000			-14.332			-2.866
227400.000			-14.332			-2.866
227500.000			-14.333			-2.867
227601.000			-14.332			-2.866
227701.000			-14.332			-2.866
227802.000			-14.332			-2.866
227901.000			-14.332			-2.866
228000.000			-14.332			-2.866
228101.000			-14.331			-2.866
228200.000			-14.331			-2.866
228300.000			-14.331			-2.866
228401.000			-14.331			-2.866
228500.000			-14.331			-2.866
228600.000			-14.331			-2.866
228702.000			-14.331			-2.866
228801.000			-14.331			-2.866
228900.000			-14.330			-2.866
229001.000			-14.331			-2.866
229100.000			-14.330			-2.866
229200.000			-14.330			-2.866
229301.000			-14.330			-2.866
229400.000			-14.330			-2.866
229500.000			-14.329			-2.866
229602.000			-14.328			-2.866
229701.000			-14.329			-2.866
229800.000			-14.328			-2.866
229901.000			-14.328			-2.866
230000.000			-14.329			-2.866
230100.000			-14.329			-2.866
230201.000			-14.328			-2.866
230300.000			-14.327			-2.865
230400.000			-14.326			-2.865
230502.000			-14.329			-2.866
230601.000			-14.327			-2.865
230701.000			-14.328			-2.866
230801.000			-14.328			-2.866
230900.000			-14.328			-2.866
231001.000			-14.328			-2.866
231100.000			-14.328			-2.866
231200.000			-14.327			-2.865
231301.000			-14.327			-2.865
231401.000			-14.326			-2.865
231501.000			-14.326			-2.865
231602.000			-14.327			-2.865
231700.000			-14.326			-2.865
231800.000			-14.326			-2.865
231901.000			-14.326			-2.865
232000.000			-14.326			-2.865
232100.000			-14.325			-2.865
232201.000			-14.325			-2.865
232301.000			-14.324			-2.865
232401.000			-14.324			-2.865
232502.000			-14.326			-2.865
232600.000			-14.325			-2.865
232700.000			-14.326			-2.865
232801.000			-14.325			-2.865
232900.000			-14.325			-2.865
233000.000			-14.325			-2.865
233101.000			-14.324			-2.865
233201.000			-14.325			-2.865
233301.000			-14.325			-2.865
233402.000			-14.325			-2.865
233500.000			-14.324			-2.865
233600.000			-14.325			-2.865
233701.000			-14.324			-2.865
233800.000			-14.325			-2.865
233900.000			-14.325			-2.865
234001.000			-14.324			-2.865
234100.000			-14.325			-2.865
234202.000			-14.325			-2.865
234301.000			-14.324			-2.865
234400.000			-14.323			-2.865
234501.000			-14.323			-2.865
234600.000			-14.323			-2.865
234700.000			-14.323			-2.865
234801.000			-14.323			-2.865
234900.000			-14.323			-2.865
235000.000			-14.323			-2.865
235102.000			-14.323			-2.865
235201.000			-14.324			-2.865
235300.000			-14.323			-2.865
235401.000			-14.323			-2.865
235500.000			-14.322			-2.864
235600.000			-14.322			-2.864
235701.000			-14.322			-2.864
235800.000			-14.322			-2.864
235900.000			-14.322			-2.864
236002.000			-14.321			-2.864
236101.000			-14.322			-2.864
236200.000			-14.321			-2.864
236301.000			-14.320			-2.864
236400.000			-14.323			-2.865
236500.000			-14.321			-2.864
236601.000			-14.321			-2.864
236700.000			-14.322			-2.864
236800.000			-14.321			-2.864
236902.000			-14.321			-2.864
237001.000			-14.321			-2.864
237101.000			-14.321			-2.864
237201.000			-14.320			-2.864
237300.000			-14.320			-2.864
237401.000			-14.320			-2.864
237500.000			-14.320			-2.864
237600.000			-14.320			-2.864
237701.000			-14.319			-2.864
237801.000			-14.319			-2.864
237901.000			-14.319			-2.864
238002.000			-14.319			-2.864
238100.000			-14.319			-2.864
238200.000			-14.319			-2.864
238301.000			-14.319			-2.864
238400.000			-14.320			-2.864
238500.000			-14.319			-2.864
238601.000			-14.318			-2.864
238700.000			-14.318			-2.864
238801.000			-14.318			-2.864
238902.000			-14.317			-2.863
239001.000			-14.318			-2.864
239100.000			-14.319			-2.864
239201.000			-14.318			-2.864
239300.000			-14.319			-2.864
239400.000			-14.319			-2.864
239501.000			-14.318			-2.864
239600.000			-14.318			-2.864
239700.000			-14.317			-2.863
239802.000			-14.318			-2.864
239901.000			-14.318			-2.864
240000.000			-14.318			-2.864
240101.000			-14.317			-2.863
240200.000			-14.316			-2.863
240300.000			-14.316			-2.863
240401.000			-14.317			-2.863
240500.000			-14.316			-2.863
240601.000			-14.317			-2.863
240701.000			-14.317			-2.863
240801.000			-14.317			-2.863
240901.000			-14.316			-2.863
241000.000			-14.316			-2.863
241100.000			-14.317			-2.863
241201.000			-14.317			-2.863
241300.000			-14.316			-2.863
241400.000			-14.316			-2.863
241501.000			-14.315			-2.863
241601.000			-14.316			-2.863
241701.000			-14.316			-2.863
241801.000			-14.315			-2.863
241900.000			-14.314			-2.863
242000.000			-14.314			-2.863
242101.000			-14.315			-2.863
242200.000			-14.315			-2.863
242300.000			-14.314			-2.863
242401.000			-14.315			-2.863
242501.000			-14.314			-2.863
242601.000			-14.314			-2.863
242701.000			-14.314			-2.863
242800.000			-14.313			-2.863
242900.000			-14.313			-2.863
243001.000			-14.314			-2.863
243100.000			-14.313			-2.863
243200.000			-14.313			-2.863
243301.000			-14.314			-2.863
243401.000			-14.314			-2.863
243501.000			-14.314			-2.863
243601.000			-14.313			-2.863
243700.000			-14.313			-2.863
243801.000			-14.312			-2.862
243900.000			-14.313			-2.863
244000.000			-14.313			-2.863
244101.000			-14.312			-2.862
244200.000			-14.312			-2.862
244301.000			-14.313			-2.863
244402.000			-14.313			-2.863
244501.000			-14.312			-2.862
244600.000			-14.312			-2.862
244701.000			-14.312			-2.862
244800.000			-14.311			-2.862
244900.000			-14.311			-2.862
245001.000			-14.312			-2.862
245100.000			-14.311			-2.862
245201.000			-14.310			-2.862
245302.000			-14.311			-2.862
245401.000			-14.312			-2.862
245500.000			-14.311			-2.862
245601.000			-14.311			-2.862
245700.000			-14.311			-2.862
245800.000			-14.311			-2.862
245901.000			-14.311			-2.862
246000.000			-14.310			-2.862
246101.000			-14.310			-2.862
246202.000			-14.310			-2.862
246301.000			-14.310			-2.862
246400.000			-14.310			-2.862
246501.000			-14.310			-2.862
246600.000			-14.310			-2.862
246700.000			-14.310			-2.862
246801.000			-14.310			-2.862
246900.000			-14.310			-2.862
247002.000			-14.310			-2.862
247101.000			-14.310			-2.862
247201.000			-14.309			-2.862
247301.000			-14.309			-2.862
247400.000			-14.309			-2.862
247500.000			-14.310			-2.862
247601.000			-14.309			-2.862
247700.000			-14.309			-2.862
247800.000			-14.309			-2.862
247901.000			-14.308			-2.862
248001.000			-14.308			-2.862
248101.000			-14.308			-2.862
248201.000			-14.308			-2.862
248300.000			-14.308			-2.862
248400.000			-14.308			-2.862
248501.000			-14.308			-2.862
248600.000			-14.308			-2.862
248700.000			-14.307			-2.861
248801.000			-14.306			-2.861
248901.000			-14.306			-2.861
249001.000			-14.308			-2.862
249102.000			-14.308			-2.862
249200.000			-14.307			-2.861
249300.000			-14.306			-2.861
249401.000			-14.307			-2.861
249500.000			-14.307			-2.861
249600.000			-14.308			-2.862
249701.000			-14.307			-2.861
249800.000			-14.306			-2.861
249901.000			-14.306			-2.861
250002.000			-14.306			-2.861
250100.000			-14.307			-2.861
250201.000			-14.306			-2.861
250300.000			-14.305			-2.861
250400.000			-14.307			-2.861
250501.000			-14.307			-2.861
250600.000			-14.306			-2.861
250700.000			-14.305			-2.861
250802.000			-14.305			-2.861
250901.000			-14.304			-2.861
251000.000			-14.304			-2.861
251101.000			-14.304			-2.861
251200.000			-14.304			-2.861
251300.000			-14.304			-2.861
251401.000			-14.304			-2.861
251500.000			-14.304			-2.861
251600.000			-14.304			-2.861
251702.000			-14.305			-2.861
251801.000			-14.302			-2.860
251900.000			-14.303			-2.861
252001.000			-14.303			-2.861
252100.000			-14.302			-2.860
252200.000			-14.303			-2.861
252301.000			-14.303			-2.861
252400.000			-14.304			-2.861
252500.000			-14.304			-2.861
252602.000			-14.303			-2.861
252701.000			-14.304			-2.861
252800.000			-14.303			-2.861
252901.000			-14.302			-2.860
253000.000			-14.303			-2.861
253100.000			-14.302			-2.860
253201.000			-14.301			-2.860
253300.000			-14.302			-2.860
253401.000			-14.303			-2.861
253501.000			-14.303			-2.861
253601.000			-14.302			-2.860
253701.000			-14.302			-2.860
253800.000			-14.302			-2.860
253900.000			-14.302			-2.860
254001.000			-14.302			-2.860
254100.000			-14.302			-2.860
254200.000			-14.301			-2.860
254301.000			-14.300			-2.860
254401.000			-14.301			-2.860
254501.000			-14.301			-2.860
254601.000			-14.301			-2.860
254700.000			-14.301			-2.860
254800.000			-14.301			-2.860
254901.000			-14.301			-2.860
255000.000			-14.301			-2.860
255100.000			-14.302			-2.860
255201.000			-14.301			-2.860
255301.000			-14.300			-2.860
255401.000			-14.300			-2.860
255501.000			-14.300			-2.860
255600.000			-14.300			-2.860
255700.000			-14.299			-2.860
255801.000			-14.299			-2.860
255900.000			-14.299			-2.860
256000.000			-14.299			-2.860
256101.000			-14.299			-2.860
256201.000			-14.300			-2.860
256301.000			-14.298			-2.860
256402.000			-14.298			-2.860
256500.000			-14.299			-2.860
256601.000			-14.299			-2.860
256700.000			-14.298			-2.860
256800.000			-14.299			-2.860
256901.000			-14.299			-2.860
257000.000			-14.298			-2.860
257100.000			-14.298			-2.860
257202.000			-14.298			-2.860
257301.000			-14.298			-2.860
257401.000			-14.299			-2.860
257501.000			-14.299			-2.860
257600.000			-14.298			-2.860
257700.000			-14.298			-2.860
257801.000			-14.298			-2.860
257900.000			-14.297			-2.859
258000.000			-14.297			-2.859
258101.000			-14.297			-2.859
258201.000			-14.297			-2.859
258301.000			-14.297			-2.859
258401.000			-14.297			-2.859
258500.000			-14.297			-2.859
258600.000			-14.296			-2.859
258701.000			-14.296			-2.859
258800.000			-14.295			-2.859
258900.000			-14.296			-2.859
259001.000			-14.297			-2.859
259101.000			-14.296			-2.859
259201.000			-14.295			-2.859
259302.000			-14.296			-2.859
259400.000			-14.295			-2.859
259500.000			-14.295			-2.859
259601.000			-14.296			-2.859
259700.000			-14.296			-2.859
259801.000			-14.295			-2.859
259900.000			-14.294			-2.859
260000.000			-14.294			-2.859
260101.000			-14.294			-2.859
260201.000			-14.295			-2.859
260301.000			-14.295			-2.859
260401.000			-14.293			-2.859
260500.000			-14.295			-2.859
260600.000			-14.296			-2.859
260701.000			-14.296			-2.859
260800.000			-14.295			-2.859
260900.000			-14.295			-2.859
261001.000			-14.295			-2.859
261101.000			-14.294			-2.859
261201.000			-14.294			-2.859
261301.000			-14.294			-2.859
261400.000			-14.294			-2.859
261500.000			-14.293			-2.859
261601.000			-14.294			-2.859
261700.000			-14.294			-2.859
261800.000			-14.294			-2.859
261901.000			-14.293			-2.859
262001.000			-14.293			-2.859
262101.000			-14.293			-2.859
262202.000			-14.293			-2.859
262300.000			-14.294			-2.859
262400.000			-14.294			-2.859
262501.000			-14.293			-2.859
262600.000			-14.294			-2.859
262700.000			-14.294			-2.859
262801.000			-14.293			-2.859
262900.000			-14.293			-2.859
263002.000			-14.293			-2.859
263101.000			-14.292			-2.858
263200.000			-14.293			-2.859
263301.000			-14.293			-2.859
263400.000			-14.293			-2.859
263500.000			-14.292			-2.858
263601.000			-14.291			-2.858
263700.000			-14.291			-2.858
263800.000			-14.292			-2.858
263902.000			-14.292			-2.858
264001.000			-14.292			-2.858
264101.000			-14.291			-2.858
264201.000			-14.291			-2.858
264300.000			-14.291			-2.858
264400.000			-14.291			-2.858
264501.000			-14.290			-2.858
264600.000			-14.291			-2.858
264700.000			-14.291			-2.858
264801.000			-14.290			-2.858
264901.000			-14.290			-2.858
265001.000			-14.290			-2.858
265101.000			-14.290			-2.858
265200.000			-14.291			-2.858
265300.000			-14.290			-2.858
265401.000			-14.290			-2.858
265500.000			-14.290			-2.858
265600.000			-14.289			-2.858
265701.000			-14.289			-2.858
265801.000			-14.289			-2.858
265901.000			-14.289			-2.858
266002.000			-14.289			-2.858
266100.000			-14.289			-2.858
266201.000			-14.290			-2.858
266300.000			-14.290			-2.858
266400.000			-14.290			-2.858
266501.000			-14.288			-2.858
266600.000			-14.288			-2.858
266700.000			-14.288			-2.858
266802.000			-14.288			-2.858
266901.000			-14.288			-2.858
267000.000			-14.287			-2.857
267101.000			-14.288			-2.858
267200.000			-14.288			-2.858
267300.000			-14.288			-2.858
267401.000			-14.288			-2.858
267500.000			-14.288			-2.858
267600.000			-14.288			-2.858
267701.000			-14.288			-2.858
267801.000			-14.288			-2.858
267901.000			-14.288			-2.858
268001.000			-14.287			-2.857
268100.000			-14.287			-2.857
268200.000			-14.286			-2.857
268301.000			-14.286			-2.857
268400.000			-14.286			-2.857
268500.000			-14.286			-2.857
268601.000			-14.287			-2.857
268701.000			-14.286			-2.857
268801.000			-14.285			-2.857
268902.000			-14.285			-2.857
269000.000			-14.285			-2.857
269100.000			-14.286			-2.857
269201.000			-14.286			-2.857
269300.000			-14.286			-2.857
269401.000			-14.285			-2.857
269500.000			-14.286			-2.857
269600.000			-14.286			-2.857
269702.000			-14.286			-2.857
269801.000			-14.285			-2.857
269901.000			-14.285			-2.857
270001.000			-14.285			-2.857
270100.000			-14.284			-2.857
270200.000			-14.286			-2.857
270301.000			-14.286			-2.857
270400.000			-14.285			-2.857
270500.000			-14.284			-2.857
270601.000			-14.285			-2.857
270701.000			-14.285			-2.857
270801.000			-14.285			-2.857
270901.000			-14.285			-2.857
271000.000			-14.286			-2.857
271100.000			-14.284			-2.857
271201.000			-14.284			-2.857
271300.000			-14.284			-2.857
271400.000			-14.283			-2.857
271501.000			-14.284			-2.857
271601.000			-14.284			-2.857
271701.000			-14.283			-2.857
271801.000			-14.282			-2.856
271900.000			-14.283			-2.857
272000.000			-14.282			-2.856
272101.000			-14.283			-2.857
272200.000			-14.284			-2.857
272300.000			-14.283			-2.857
272401.000			-14.283			-2.857
272501.000			-14.282			-2.856
272602.000			-14.282			-2.856
272701.000			-14.282			-2.856
272800.000			-14.282			-2.856
272901.000			-14.282			-2.856
273000.000			-14.282			-2.856
273100.000			-14.282			-2.856
273201.000			-14.282			-2.856
273300.000			-14.282			-2.856
273400.000			-14.281			-2.856
273502.000			-14.282			-2.856
273601.000			-14.281			-2.856
273700.000			-14.281			-2.856
273801.000			-14.281			-2.856
273900.000			-14.281			-2.856
274000.000			-14.280			-2.856
274101.000			-14.281			-2.856
274200.000			-14.281			-2.856
274300.000			-14.281			-2.856
274402.000			-14.282			-2.856
274501.000			-14.279			-2.856
274601.000			-14.280			-2.856
274701.000			-14.280			-2.856
274800.000			-14.279			-2.856
274900.000			-14.278			-2.856
275001.000			-14.279			-2.856
275100.000			-14.280			-2.856
275200.000			-14.281			-2.856
275301.000			-14.280			-2.856
275401.000			-14.280			-2.856
275501.000			-14.280			-2.856
275601.000			-14.279			-2.856
275700.000			-14.280			-2.856
275801.000			-14.280			-2.856
275900.000			-14.280			-2.856
276000.000			-14.279			-2.856
276101.000			-14.279			-2.856
276200.000			-14.279			-2.856
276300.000			-14.277			-2.855
276402.000			-14.278			-2.856
276501.000			-14.279			-2.856
276600.000			-14.278			-2.856
276701.000			-14.278			-2.856
276800.000			-14.278			-2.856
276900.000			-14.277			-2.855
277001.000			-14.278			-2.856
277100.000			-14.279			-2.856
277200.000			-14.278			-2.856
277302.000			-14.277			-2.855
277401.000			-14.277			-2.855
277501.000			-14.277			-2.855
277601.000			-14.277			-2.855
277700.000			-14.277			-2.855
277800.000			-14.277			-2.855
277901.000			-14.276			-2.855
278000.000			-14.277			-2.855
278100.000			-14.277			-2.855
278201.000			-14.276			-2.855
278301.000			-14.275			-2.855
278401.000			-14.275			-2.855
278501.000			-14.276			-2.855
278600.000			-14.276			-2.855
278700.000			-14.276			-2.855
278801.000			-14.276			-2.855
278900.000			-14.276			-2.855
279001.000			-14.275			-2.855
279100.000			-14.275			-2.855
279200.000			-14.275			-2.855
279302.000			-14.275			-2.855
279401.000			-14.275			-2.855
279500.000			-14.275			-2.855
279601.000			-14.275			-2.855
279700.000			-14.275			-2.855
279800.000			-14.275			-2.855
279901.000			-14.274			-2.855
280000.000			-14.274			-2.855
280100.000			-14.273			-2.855
280202.000			-14.273			-2.855
280301.000			-14.273			-2.855
280401.000			-14.274			-2.855
280501.000			-14.274			-2.855
280600.000			-14.273			-2.855
280700.000			-14.273			-2.855
280801.000			-14.274			-2.855
280900.000			-14.273			-2.855
281000.000			-14.273			-2.855
281102.000			-14.272			-2.854
281201.000			-14.272			-2.854
281301.000			-14.272			-2.854
281401.000			-14.273			-2.855
281500.000			-14.273			-2.855
281600.000			-14.273			-2.855
281701.000			-14.273			-2.855
281800.000			-14.273			-2.855
281900.000			-14.272			-2.854
282001.000			-14.272			-2.854
282101.000			-14.272			-2.854
282202.000			-14.273			-2.855
282300.000			-14.273			-2.855
282400.000			-14.272			-2.854
282501.000			-14.271			-2.854
282600.000			-14.271			-2.854
282700.000			-14.271			-2.854
282801.000			-14.271			-2.854
282900.000			-14.272			-2.854
283001.000			-14.272			-2.854
283102.000			-14.270			-2.854
283200.000			-14.270			-2.854
283300.000			-14.269			-2.854
283401.000			-14.270			-2.854
283500.000			-14.269			-2.854
283600.000			-14.269			-2.854
283701.000			-14.270			-2.854
283800.000			-14.269			-2.854
283901.000			-14.269			-2.854
284002.000			-14.271			-2.854
284101.000			-14.272			-2.854
284200.000			-14.271			-2.854
284301.000			-14.269			-2.854
284400.000			-14.269			-2.854
284500.000			-14.269			-2.854
284601.000			-14.270			-2.854
284700.000			-14.269			-2.854
284800.000			-14.269			-2.854
284902.000			-14.269			-2.854
285001.000			-14.269			-2.854
285101.000			-14.269			-2.854
285201.000			-14.269			-2.854
285300.000			-14.269			-2.854
285401.000			-14.268			-2.854
285500.000			-14.268			-2.854
285600.000			-14.268			-2.854
285701.000			-14.267			-2.853
285800.000			-14.267			-2.853
285901.000			-14.268			-2.854
286002.000			-14.268			-2.854
286100.000			-14.267			-2.853
286200.000			-14.267			-2.853
286301.000			-14.266			-2.853
286400.000			-14.267			-2.853
286500.000			-14.267			-2.853
286601.000			-14.267			-2.853
286700.000			-14.267			-2.853
286800.000			-14.267			-2.853
286902.000			-14.267			-2.853
287001.000			-14.266			-2.853
287100.000			-14.267			-2.853
287201.000			-14.266			-2.853
287300.000			-14.267			-2.853
287400.000			-14.267			-2.853
287501.000			-14.266			-2.853
287600.000			-14.265			-2.853
287700.000			-14.264			-2.853
287802.000			-14.265			-2.853
287901.000			-14.265			-2.853
288001.000			-14.266			-2.853
288101.000			-14.265			-2.853
288200.000			-14.265			-2.853
288300.000			-14.265			-2.853
288401.000			-14.266			-2.853
288500.000			-14.265			-2.853
288601.000			-14.264			-2.853
288700.000			-14.264			-2.853
288801.000			-14.264			-2.853
288902.000			-14.264			-2.853
289001.000			-14.264			-2.853
289100.000			-14.265			-2.853
289201.000			-14.264			-2.853
289300.000			-14.264			-2.853
289400.000			-14.265			-2.853
289501.000			-14.264			-2.853
289600.000			-14.264			-2.853
289700.000			-14.264			-2.853
289802.000			-14.263			-2.853
289901.000			-14.263			-2.853
290000.000			-14.263			-2.853
290101.000			-14.265			-2.853
290200.000			-14.264			-2.853
290300.000			-14.263			-2.853
290401.000			-14.263			-2.853
290500.000			-14.263			-2.853
290600.000			-14.263			-2.853
290702.000			-14.262			-2.852
290801.000			-14.263			-2.853
290901.000			-14.262			-2.852
291001.000			-14.261			-2.852
291100.000			-14.262			-2.852
291200.000			-14.263			-2.853
291301.000			-14.263			-2.853
291400.000			-14.262			-2.852
291500.000			-14.261			-2.852
291602.000			-14.261			-2.852
291701.000			-14.261			-2.852
291802.000			-14.262			-2.852
291900.000			-14.262			-2.852
292000.000			-14.261			-2.852
292101.000			-14.261			-2.852
292200.000			-14.261			-2.852
292300.000			-14.261			-2.852
292401.000			-14.261			-2.852
292500.000			-14.261			-2.852
292601.000			-14.261			-2.852
292702.000			-14.261			-2.852
292800.000			-14.260			-2.852
292900.000			-14.260			-2.852
293001.000			-14.260			-2.852
293100.000			-14.259			-2.852
293200.000			-14.260			-2.852
293301.000			-14.259			-2.852
293400.000			-14.259			-2.852
293501.000			-14.259			-2.852
293602.000			-14.259			-2.852
293701.000			-14.259			-2.852
293800.000			-14.258			-2.852
293901.000			-14.258			-2.852
294000.000			-14.258			-2.852
294100.000			-14.259			-2.852
294201.000			-14.258			-2.852
294300.000			-14.258			-2.852
294400.000			-14.258			-2.852
294502.000			-14.259			-2.852
294601.000			-14.258			-2.852
294700.000			-14.258			-2.852
294801.000			-14.258			-2.852
294900.000			-14.258			-2.852
295001.000			-14.258			-2.852
295100.000			-14.259			-2.852
295200.000			-14.258			-2.852
295301.000			-14.258			-2.852
295400.000			-14.257			-2.851
295501.000			-14.258			-2.852
295602.000			-14.258			-2.852
295700.000			-14.257			-2.851
295800.000			-14.257			-2.851
295901.000			-14.256			-2.851
296000.000			-14.256			-2.851
296100.000			-14.256			-2.851
296201.000			-14.256			-2.851
296300.000			-14.257			-2.851
296401.000			-14.256			-2.851
296502.000			-14.256			-2.851
296601.000			-14.256			-2.851
296700.000			-14.256			-2.851
296801.000			-14.256			-2.851
296900.000			-14.255			-2.851
297000.000			-14.256			-2.851
297101.000			-14.256			-2.851
297200.000			-14.256			-2.851
297300.000			-14.256			-2.851
297402.000			-14.255			-2.851
297501.000			-14.255			-2.851
297600.000			-14.255			-2.851
297701.000			-14.255			-2.851
297800.000			-14.255			-2.851
297900.000			-14.255			-2.851
298001.000			-14.255			-2.851
298100.000			-14.255			-2.851
298201.000			-14.254			-2.851
298301.000			-14.255			-2.851
298401.000			-14.255			-2.851
298502.000			-14.255			-2.851
298600.000			-14.254			-2.851
298700.000			-14.254			-2.851
298801.000			-14.255			-2.851
298900.000			-14.254			-2.851
299000.000			-14.253			-2.851
299101.000			-14.254			-2.851
299200.000			-14.253			-2.851
299301.000			-14.254			-2.851
299402.000			-14.255			-2.851
299501.000			-14.254			-2.851
299600.000			-14.253			-2.851
299701.000			-14.253			-2.851
299800.000			-14.254			-2.851
299900.000			-14.253			-2.851
